# OpenSignals Text File Format. Version 1
# {"98:D3:41:FE:2E:A0": {"position": 0, "device": "bitalino_rev", "device name": "98:D3:41:FE:2E:A0", "device connection": "BTH98:D3:41:FE:2E:A0", "sampling rate": 1000, "resolution": [4, 1, 1, 1, 1, 10], "firmware version": 1282, "comments": "", "keywords": "", "mode": 0, "sync interval": 2, "date": "2025-4-10", "time": "11:23:31.753", "channels": [2], "sensor": ["RAW"], "label": ["A2"], "column": ["nSeq", "I1", "I2", "O1", "O2", "A2"], "special": [{}], "digital IO": [0, 0, 1, 1], "convertedValues": 0}}
# EndOfHeader
0	0	0	0	0	529	
1	0	0	0	0	531	
2	0	0	0	0	531	
3	0	0	0	0	531	
4	0	0	0	0	531	
5	0	0	0	0	530	
6	0	0	0	0	529	
7	0	0	0	0	528	
8	0	0	0	0	529	
9	0	0	0	0	529	
10	0	0	0	0	527	
11	0	0	0	0	527	
12	0	0	0	0	526	
13	0	0	0	0	525	
14	0	0	0	0	526	
15	0	0	0	0	525	
0	0	0	0	0	526	
1	0	0	0	0	525	
2	0	0	0	0	526	
3	0	0	0	0	526	
4	0	0	0	0	526	
5	0	0	0	0	528	
6	0	0	0	0	530	
7	0	0	0	0	531	
8	0	0	0	0	532	
9	0	0	0	0	532	
10	0	0	0	0	532	
11	0	0	0	0	532	
12	0	0	0	0	531	
13	0	0	0	0	530	
14	0	0	0	0	529	
15	0	0	0	0	529	
0	0	0	0	0	528	
1	0	0	0	0	528	
2	0	0	0	0	529	
3	0	0	0	0	529	
4	0	0	0	0	528	
5	0	0	0	0	528	
6	0	0	0	0	528	
7	0	0	0	0	527	
8	0	0	0	0	527	
9	0	0	0	0	526	
10	0	0	0	0	524	
11	0	0	0	0	524	
12	0	0	0	0	524	
13	0	0	0	0	524	
14	0	0	0	0	524	
15	0	0	0	0	523	
0	0	0	0	0	521	
1	0	0	0	0	520	
2	0	0	0	0	519	
3	0	0	0	0	518	
4	0	0	0	0	516	
5	0	0	0	0	515	
6	0	0	0	0	515	
7	0	0	0	0	514	
8	0	0	0	0	513	
9	0	0	0	0	511	
10	0	0	0	0	510	
11	0	0	0	0	509	
12	0	0	0	0	507	
13	0	0	0	0	505	
14	0	0	0	0	504	
15	0	0	0	0	504	
0	0	0	0	0	503	
1	0	0	0	0	500	
2	0	0	0	0	499	
3	0	0	0	0	499	
4	0	0	0	0	498	
5	0	0	0	0	497	
6	0	0	0	0	495	
7	0	0	0	0	494	
8	0	0	0	0	494	
9	0	0	0	0	491	
10	0	0	0	0	489	
11	0	0	0	0	487	
12	0	0	0	0	487	
13	0	0	0	0	486	
14	0	0	0	0	486	
15	0	0	0	0	485	
0	0	0	0	0	484	
1	0	0	0	0	484	
2	0	0	0	0	483	
3	0	0	0	0	483	
4	0	0	0	0	481	
5	0	0	0	0	480	
6	0	0	0	0	478	
7	0	0	0	0	476	
8	0	0	0	0	475	
9	0	0	0	0	474	
10	0	0	0	0	472	
11	0	0	0	0	471	
12	0	0	0	0	470	
13	0	0	0	0	469	
14	0	0	0	0	468	
15	0	0	0	0	467	
0	0	0	0	0	467	
1	0	0	0	0	467	
2	0	0	0	0	468	
3	0	0	0	0	469	
4	0	0	0	0	470	
5	0	0	0	0	471	
6	0	0	0	0	471	
7	0	0	0	0	472	
8	0	0	0	0	471	
9	0	0	0	0	471	
10	0	0	0	0	471	
11	0	0	0	0	472	
12	0	0	0	0	473	
13	0	0	0	0	473	
14	0	0	0	0	472	
15	0	0	0	0	472	
0	0	0	0	0	472	
1	0	0	0	0	472	
2	0	0	0	0	472	
3	0	0	0	0	473	
4	0	0	0	0	473	
5	0	0	0	0	474	
6	0	0	0	0	475	
7	0	0	0	0	476	
8	0	0	0	0	477	
9	0	0	0	0	478	
10	0	0	0	0	478	
11	0	0	0	0	479	
12	0	0	0	0	479	
13	0	0	0	0	480	
14	0	0	0	0	480	
15	0	0	0	0	481	
0	0	0	0	0	482	
1	0	0	0	0	483	
2	0	0	0	0	483	
3	0	0	0	0	483	
4	0	0	0	0	484	
5	0	0	0	0	484	
6	0	0	0	0	484	
7	0	0	0	0	484	
8	0	0	0	0	484	
9	0	0	0	0	484	
10	0	0	0	0	486	
11	0	0	0	0	487	
12	0	0	0	0	488	
13	0	0	0	0	490	
14	0	0	0	0	491	
15	0	0	0	0	492	
0	0	0	0	0	492	
1	0	0	0	0	494	
2	0	0	0	0	494	
3	0	0	0	0	494	
4	0	0	0	0	495	
5	0	0	0	0	495	
6	0	0	0	0	495	
7	0	0	0	0	494	
8	0	0	0	0	494	
9	0	0	0	0	493	
10	0	0	0	0	493	
11	0	0	0	0	493	
12	0	0	0	0	494	
13	0	0	0	0	494	
14	0	0	0	0	494	
15	0	0	0	0	495	
0	0	0	0	0	496	
1	0	0	0	0	498	
2	0	0	0	0	498	
3	0	0	0	0	499	
4	0	0	0	0	501	
5	0	0	0	0	502	
6	0	0	0	0	503	
7	0	0	0	0	502	
8	0	0	0	0	503	
9	0	0	0	0	504	
10	0	0	0	0	504	
11	0	0	0	0	504	
12	0	0	0	0	504	
13	0	0	0	0	505	
14	0	0	0	0	507	
15	0	0	0	0	507	
0	0	0	0	0	506	
1	0	0	0	0	505	
2	0	0	0	0	504	
3	0	0	0	0	505	
4	0	0	0	0	507	
5	0	0	0	0	509	
6	0	0	0	0	511	
7	0	0	0	0	511	
8	0	0	0	0	511	
9	0	0	0	0	512	
10	0	0	0	0	512	
11	0	0	0	0	512	
12	0	0	0	0	513	
13	0	0	0	0	512	
14	0	0	0	0	512	
15	0	0	0	0	512	
0	0	0	0	0	512	
1	0	0	0	0	512	
2	0	0	0	0	513	
3	0	0	0	0	513	
4	0	0	0	0	514	
5	0	0	0	0	513	
6	0	0	0	0	513	
7	0	0	0	0	513	
8	0	0	0	0	513	
9	0	0	0	0	513	
10	0	0	0	0	512	
11	0	0	0	0	511	
12	0	0	0	0	510	
13	0	0	0	0	510	
14	0	0	0	0	511	
15	0	0	0	0	512	
0	0	0	0	0	513	
1	0	0	0	0	514	
2	0	0	0	0	514	
3	0	0	0	0	513	
4	0	0	0	0	513	
5	0	0	0	0	512	
6	0	0	0	0	512	
7	0	0	0	0	513	
8	0	0	0	0	515	
9	0	0	0	0	514	
10	0	0	0	0	515	
11	0	0	0	0	515	
12	0	0	0	0	516	
13	0	0	0	0	516	
14	0	0	0	0	515	
15	0	0	0	0	515	
0	0	0	0	0	514	
1	0	0	0	0	513	
2	0	0	0	0	513	
3	0	0	0	0	512	
4	0	0	0	0	512	
5	0	0	0	0	512	
6	0	0	0	0	512	
7	0	0	0	0	512	
8	0	0	0	0	512	
9	0	0	0	0	513	
10	0	0	0	0	513	
11	0	0	0	0	512	
12	0	0	0	0	513	
13	0	0	0	0	513	
14	0	0	0	0	513	
15	0	0	0	0	513	
0	0	0	0	0	513	
1	0	0	0	0	513	
2	0	0	0	0	513	
3	0	0	0	0	513	
4	0	0	0	0	514	
5	0	0	0	0	514	
6	0	0	0	0	513	
7	0	0	0	0	513	
8	0	0	0	0	511	
9	0	0	0	0	511	
10	0	0	0	0	510	
11	0	0	0	0	510	
12	0	0	0	0	510	
13	0	0	0	0	510	
14	0	0	0	0	511	
15	0	0	0	0	511	
0	0	0	0	0	511	
1	0	0	0	0	511	
2	0	0	0	0	512	
3	0	0	0	0	512	
4	0	0	0	0	512	
5	0	0	0	0	512	
6	0	0	0	0	512	
7	0	0	0	0	512	
8	0	0	0	0	512	
9	0	0	0	0	512	
10	0	0	0	0	512	
11	0	0	0	0	512	
12	0	0	0	0	511	
13	0	0	0	0	510	
14	0	0	0	0	508	
15	0	0	0	0	507	
0	0	0	0	0	507	
1	0	0	0	0	507	
2	0	0	0	0	507	
3	0	0	0	0	507	
4	0	0	0	0	508	
5	0	0	0	0	507	
6	0	0	0	0	508	
7	0	0	0	0	508	
8	0	0	0	0	509	
9	0	0	0	0	509	
10	0	0	0	0	511	
11	0	0	0	0	511	
12	0	0	0	0	511	
13	0	0	0	0	512	
14	0	0	0	0	512	
15	0	0	0	0	512	
0	0	0	0	0	514	
1	0	0	0	0	515	
2	0	0	0	0	514	
3	0	0	0	0	513	
4	0	0	0	0	512	
5	0	0	0	0	512	
6	0	0	0	0	512	
7	0	0	0	0	512	
8	0	0	0	0	512	
9	0	0	0	0	511	
10	0	0	0	0	511	
11	0	0	0	0	511	
12	0	0	0	0	512	
13	0	0	0	0	513	
14	0	0	0	0	512	
15	0	0	0	0	513	
0	0	0	0	0	515	
1	0	0	0	0	516	
2	0	0	0	0	518	
3	0	0	0	0	518	
4	0	0	0	0	518	
5	0	0	0	0	517	
6	0	0	0	0	517	
7	0	0	0	0	516	
8	0	0	0	0	516	
9	0	0	0	0	517	
10	0	0	0	0	517	
11	0	0	0	0	516	
12	0	0	0	0	516	
13	0	0	0	0	516	
14	0	0	0	0	516	
15	0	0	0	0	516	
0	0	0	0	0	516	
1	0	0	0	0	517	
2	0	0	0	0	518	
3	0	0	0	0	518	
4	0	0	0	0	519	
5	0	0	0	0	519	
6	0	0	0	0	520	
7	0	0	0	0	520	
8	0	0	0	0	520	
9	0	0	0	0	520	
10	0	0	0	0	520	
11	0	0	0	0	519	
12	0	0	0	0	519	
13	0	0	0	0	519	
14	0	0	0	0	519	
15	0	0	0	0	518	
0	0	0	0	0	517	
1	0	0	0	0	517	
2	0	0	0	0	518	
3	0	0	0	0	519	
4	0	0	0	0	519	
5	0	0	0	0	520	
6	0	0	0	0	521	
7	0	0	0	0	522	
8	0	0	0	0	523	
9	0	0	0	0	524	
10	0	0	0	0	524	
11	0	0	0	0	526	
12	0	0	0	0	526	
13	0	0	0	0	526	
14	0	0	0	0	525	
15	0	0	0	0	524	
0	0	0	0	0	524	
1	0	0	0	0	523	
2	0	0	0	0	523	
3	0	0	0	0	522	
4	0	0	0	0	522	
5	0	0	0	0	521	
6	0	0	0	0	520	
7	0	0	0	0	520	
8	0	0	0	0	521	
9	0	0	0	0	522	
10	0	0	0	0	523	
11	0	0	0	0	524	
12	0	0	0	0	527	
13	0	0	0	0	528	
14	0	0	0	0	529	
15	0	0	0	0	530	
0	0	0	0	0	530	
1	0	0	0	0	531	
2	0	0	0	0	531	
3	0	0	0	0	531	
4	0	0	0	0	531	
5	0	0	0	0	529	
6	0	0	0	0	529	
7	0	0	0	0	529	
8	0	0	0	0	529	
9	0	0	0	0	530	
10	0	0	0	0	531	
11	0	0	0	0	533	
12	0	0	0	0	533	
13	0	0	0	0	533	
14	0	0	0	0	532	
15	0	0	0	0	533	
0	0	0	0	0	534	
1	0	0	0	0	534	
2	0	0	0	0	534	
3	0	0	0	0	533	
4	0	0	0	0	533	
5	0	0	0	0	533	
6	0	0	0	0	533	
7	0	0	0	0	532	
8	0	0	0	0	532	
9	0	0	0	0	532	
10	0	0	0	0	532	
11	0	0	0	0	531	
12	0	0	0	0	531	
13	0	0	0	0	531	
14	0	0	0	0	531	
15	0	0	0	0	532	
0	0	0	0	0	532	
1	0	0	0	0	532	
2	0	0	0	0	533	
3	0	0	0	0	535	
4	0	0	0	0	536	
5	0	0	0	0	536	
6	0	0	0	0	537	
7	0	0	0	0	537	
8	0	0	0	0	537	
9	0	0	0	0	538	
10	0	0	0	0	537	
11	0	0	0	0	537	
12	0	0	0	0	537	
13	0	0	0	0	537	
14	0	0	0	0	537	
15	0	0	0	0	537	
0	0	0	0	0	537	
1	0	0	0	0	537	
2	0	0	0	0	537	
3	0	0	0	0	537	
4	0	0	0	0	536	
5	0	0	0	0	536	
6	0	0	0	0	537	
7	0	0	0	0	537	
8	0	0	0	0	538	
9	0	0	0	0	539	
10	0	0	0	0	539	
11	0	0	0	0	540	
12	0	0	0	0	539	
13	0	0	0	0	539	
14	0	0	0	0	539	
15	0	0	0	0	538	
0	0	0	0	0	538	
1	0	0	0	0	537	
2	0	0	0	0	536	
3	0	0	0	0	536	
4	0	0	0	0	537	
5	0	0	0	0	537	
6	0	0	0	0	537	
7	0	0	0	0	537	
8	0	0	0	0	537	
9	0	0	0	0	538	
10	0	0	0	0	539	
11	0	0	0	0	540	
12	0	0	0	0	540	
13	0	0	0	0	540	
14	0	0	0	0	540	
15	0	0	0	0	541	
0	0	0	0	0	541	
1	0	0	0	0	542	
2	0	0	0	0	542	
3	0	0	0	0	542	
4	0	0	0	0	542	
5	0	0	0	0	541	
6	0	0	0	0	540	
7	0	0	0	0	540	
8	0	0	0	0	540	
9	0	0	0	0	540	
10	0	0	0	0	540	
11	0	0	0	0	540	
12	0	0	0	0	539	
13	0	0	0	0	539	
14	0	0	0	0	540	
15	0	0	0	0	540	
0	0	0	0	0	539	
1	0	0	0	0	538	
2	0	0	0	0	537	
3	0	0	0	0	537	
4	0	0	0	0	536	
5	0	0	0	0	535	
6	0	0	0	0	535	
7	0	0	0	0	535	
8	0	0	0	0	535	
9	0	0	0	0	534	
10	0	0	0	0	534	
11	0	0	0	0	534	
12	0	0	0	0	533	
13	0	0	0	0	533	
14	0	0	0	0	533	
15	0	0	0	0	533	
0	0	0	0	0	533	
1	0	0	0	0	533	
2	0	0	0	0	533	
3	0	0	0	0	533	
4	0	0	0	0	534	
5	0	0	0	0	536	
6	0	0	0	0	535	
7	0	0	0	0	536	
8	0	0	0	0	535	
9	0	0	0	0	535	
10	0	0	0	0	535	
11	0	0	0	0	534	
12	0	0	0	0	534	
13	0	0	0	0	534	
14	0	0	0	0	534	
15	0	0	0	0	535	
0	0	0	0	0	537	
1	0	0	0	0	538	
2	0	0	0	0	539	
3	0	0	0	0	540	
4	0	0	0	0	542	
5	0	0	0	0	544	
6	0	0	0	0	547	
7	0	0	0	0	549	
8	0	0	0	0	550	
9	0	0	0	0	550	
10	0	0	0	0	550	
11	0	0	0	0	550	
12	0	0	0	0	547	
13	0	0	0	0	547	
14	0	0	0	0	545	
15	0	0	0	0	543	
0	0	0	0	0	540	
1	0	0	0	0	538	
2	0	0	0	0	536	
3	0	0	0	0	535	
4	0	0	0	0	533	
5	0	0	0	0	532	
6	0	0	0	0	531	
7	0	0	0	0	532	
8	0	0	0	0	532	
9	0	0	0	0	534	
10	0	0	0	0	535	
11	0	0	0	0	536	
12	0	0	0	0	539	
13	0	0	0	0	540	
14	0	0	0	0	541	
15	0	0	0	0	543	
0	0	0	0	0	543	
1	0	0	0	0	544	
2	0	0	0	0	543	
3	0	0	0	0	543	
4	0	0	0	0	542	
5	0	0	0	0	540	
6	0	0	0	0	539	
7	0	0	0	0	536	
8	0	0	0	0	534	
9	0	0	0	0	533	
10	0	0	0	0	532	
11	0	0	0	0	532	
12	0	0	0	0	530	
13	0	0	0	0	528	
14	0	0	0	0	526	
15	0	0	0	0	525	
0	0	0	0	0	524	
1	0	0	0	0	524	
2	0	0	0	0	525	
3	0	0	0	0	524	
4	0	0	0	0	524	
5	0	0	0	0	523	
6	0	0	0	0	521	
7	0	0	0	0	520	
8	0	0	0	0	519	
9	0	0	0	0	518	
10	0	0	0	0	517	
11	0	0	0	0	517	
12	0	0	0	0	517	
13	0	0	0	0	516	
14	0	0	0	0	515	
15	0	0	0	0	516	
0	0	0	0	0	518	
1	0	0	0	0	519	
2	0	0	0	0	520	
3	0	0	0	0	521	
4	0	0	0	0	522	
5	0	0	0	0	521	
6	0	0	0	0	519	
7	0	0	0	0	517	
8	0	0	0	0	515	
9	0	0	0	0	513	
10	0	0	0	0	512	
11	0	0	0	0	512	
12	0	0	0	0	512	
13	0	0	0	0	514	
14	0	0	0	0	515	
15	0	0	0	0	515	
0	0	0	0	0	516	
1	0	0	0	0	516	
2	0	0	0	0	517	
3	0	0	0	0	518	
4	0	0	0	0	519	
5	0	0	0	0	520	
6	0	0	0	0	521	
7	0	0	0	0	523	
8	0	0	0	0	523	
9	0	0	0	0	524	
10	0	0	0	0	525	
11	0	0	0	0	525	
12	0	0	0	0	525	
13	0	0	0	0	525	
14	0	0	0	0	525	
15	0	0	0	0	525	
0	0	0	0	0	526	
1	0	0	0	0	526	
2	0	0	0	0	526	
3	0	0	0	0	525	
4	0	0	0	0	525	
5	0	0	0	0	526	
6	0	0	0	0	526	
7	0	0	0	0	525	
8	0	0	0	0	526	
9	0	0	0	0	527	
10	0	0	0	0	527	
11	0	0	0	0	527	
12	0	0	0	0	526	
13	0	0	0	0	526	
14	0	0	0	0	525	
15	0	0	0	0	523	
0	0	0	0	0	521	
1	0	0	0	0	521	
2	0	0	0	0	521	
3	0	0	0	0	520	
4	0	0	0	0	520	
5	0	0	0	0	523	
6	0	0	0	0	527	
7	0	0	0	0	533	
8	0	0	0	0	541	
9	0	0	0	0	551	
10	0	0	0	0	563	
11	0	0	0	0	576	
12	0	0	0	0	590	
13	0	0	0	0	606	
14	0	0	0	0	623	
15	0	0	0	0	639	
0	0	0	0	0	655	
1	0	0	0	0	671	
2	0	0	0	0	691	
3	0	0	0	0	711	
4	0	0	0	0	732	
5	0	0	0	0	755	
6	0	0	0	0	778	
7	0	0	0	0	801	
8	0	0	0	0	826	
9	0	0	0	0	851	
10	0	0	0	0	878	
11	0	0	0	0	905	
12	0	0	0	0	931	
13	0	0	0	0	956	
14	0	0	0	0	983	
15	0	0	0	0	1011	
0	0	0	0	0	1022	
1	0	0	0	0	1022	
2	0	0	0	0	1022	
3	0	0	0	0	1022	
4	0	0	0	0	1022	
5	0	0	0	0	1022	
6	0	0	0	0	1022	
7	0	0	0	0	1022	
8	0	0	0	0	1022	
9	0	0	0	0	1021	
10	0	0	0	0	995	
11	0	0	0	0	961	
12	0	0	0	0	922	
13	0	0	0	0	874	
14	0	0	0	0	822	
15	0	0	0	0	766	
0	0	0	0	0	711	
1	0	0	0	0	660	
2	0	0	0	0	613	
3	0	0	0	0	571	
4	0	0	0	0	535	
5	0	0	0	0	505	
6	0	0	0	0	481	
7	0	0	0	0	463	
8	0	0	0	0	449	
9	0	0	0	0	441	
10	0	0	0	0	432	
11	0	0	0	0	422	
12	0	0	0	0	412	
13	0	0	0	0	405	
14	0	0	0	0	399	
15	0	0	0	0	396	
0	0	0	0	0	393	
1	0	0	0	0	392	
2	0	0	0	0	392	
3	0	0	0	0	391	
4	0	0	0	0	393	
5	0	0	0	0	395	
6	0	0	0	0	396	
7	0	0	0	0	397	
8	0	0	0	0	399	
9	0	0	0	0	402	
10	0	0	0	0	406	
11	0	0	0	0	408	
12	0	0	0	0	411	
13	0	0	0	0	412	
14	0	0	0	0	414	
15	0	0	0	0	415	
0	0	0	0	0	415	
1	0	0	0	0	415	
2	0	0	0	0	415	
3	0	0	0	0	414	
4	0	0	0	0	414	
5	0	0	0	0	413	
6	0	0	0	0	413	
7	0	0	0	0	412	
8	0	0	0	0	411	
9	0	0	0	0	411	
10	0	0	0	0	411	
11	0	0	0	0	410	
12	0	0	0	0	410	
13	0	0	0	0	410	
14	0	0	0	0	411	
15	0	0	0	0	411	
0	0	0	0	0	412	
1	0	0	0	0	411	
2	0	0	0	0	411	
3	0	0	0	0	410	
4	0	0	0	0	409	
5	0	0	0	0	408	
6	0	0	0	0	408	
7	0	0	0	0	409	
8	0	0	0	0	411	
9	0	0	0	0	412	
10	0	0	0	0	413	
11	0	0	0	0	414	
12	0	0	0	0	414	
13	0	0	0	0	414	
14	0	0	0	0	416	
15	0	0	0	0	417	
0	0	0	0	0	418	
1	0	0	0	0	419	
2	0	0	0	0	420	
3	0	0	0	0	422	
4	0	0	0	0	423	
5	0	0	0	0	424	
6	0	0	0	0	425	
7	0	0	0	0	427	
8	0	0	0	0	427	
9	0	0	0	0	427	
10	0	0	0	0	427	
11	0	0	0	0	428	
12	0	0	0	0	429	
13	0	0	0	0	430	
14	0	0	0	0	431	
15	0	0	0	0	433	
0	0	0	0	0	435	
1	0	0	0	0	436	
2	0	0	0	0	437	
3	0	0	0	0	438	
4	0	0	0	0	438	
5	0	0	0	0	438	
6	0	0	0	0	440	
7	0	0	0	0	441	
8	0	0	0	0	442	
9	0	0	0	0	443	
10	0	0	0	0	446	
11	0	0	0	0	447	
12	0	0	0	0	448	
13	0	0	0	0	450	
14	0	0	0	0	451	
15	0	0	0	0	453	
0	0	0	0	0	453	
1	0	0	0	0	454	
2	0	0	0	0	455	
3	0	0	0	0	456	
4	0	0	0	0	457	
5	0	0	0	0	458	
6	0	0	0	0	460	
7	0	0	0	0	460	
8	0	0	0	0	462	
9	0	0	0	0	464	
10	0	0	0	0	467	
11	0	0	0	0	469	
12	0	0	0	0	471	
13	0	0	0	0	471	
14	0	0	0	0	472	
15	0	0	0	0	472	
0	0	0	0	0	474	
1	0	0	0	0	475	
2	0	0	0	0	476	
3	0	0	0	0	478	
4	0	0	0	0	479	
5	0	0	0	0	480	
6	0	0	0	0	481	
7	0	0	0	0	483	
8	0	0	0	0	484	
9	0	0	0	0	486	
10	0	0	0	0	487	
11	0	0	0	0	489	
12	0	0	0	0	491	
13	0	0	0	0	491	
14	0	0	0	0	493	
15	0	0	0	0	494	
0	0	0	0	0	496	
1	0	0	0	0	496	
2	0	0	0	0	496	
3	0	0	0	0	497	
4	0	0	0	0	497	
5	0	0	0	0	497	
6	0	0	0	0	497	
7	0	0	0	0	497	
8	0	0	0	0	497	
9	0	0	0	0	497	
10	0	0	0	0	498	
11	0	0	0	0	499	
12	0	0	0	0	499	
13	0	0	0	0	499	
14	0	0	0	0	500	
15	0	0	0	0	502	
0	0	0	0	0	503	
1	0	0	0	0	504	
2	0	0	0	0	505	
3	0	0	0	0	507	
4	0	0	0	0	508	
5	0	0	0	0	508	
6	0	0	0	0	510	
7	0	0	0	0	511	
8	0	0	0	0	511	
9	0	0	0	0	511	
10	0	0	0	0	510	
11	0	0	0	0	510	
12	0	0	0	0	510	
13	0	0	0	0	511	
14	0	0	0	0	511	
15	0	0	0	0	511	
0	0	0	0	0	513	
1	0	0	0	0	514	
2	0	0	0	0	514	
3	0	0	0	0	515	
4	0	0	0	0	517	
5	0	0	0	0	517	
6	0	0	0	0	516	
7	0	0	0	0	516	
8	0	0	0	0	516	
9	0	0	0	0	518	
10	0	0	0	0	518	
11	0	0	0	0	518	
12	0	0	0	0	516	
13	0	0	0	0	516	
14	0	0	0	0	515	
15	0	0	0	0	515	
0	0	0	0	0	515	
1	0	0	0	0	515	
2	0	0	0	0	514	
3	0	0	0	0	514	
4	0	0	0	0	515	
5	0	0	0	0	516	
6	0	0	0	0	518	
7	0	0	0	0	518	
8	0	0	0	0	519	
9	0	0	0	0	520	
10	0	0	0	0	521	
11	0	0	0	0	523	
12	0	0	0	0	523	
13	0	0	0	0	522	
14	0	0	0	0	522	
15	0	0	0	0	522	
0	0	0	0	0	521	
1	0	0	0	0	521	
2	0	0	0	0	519	
3	0	0	0	0	519	
4	0	0	0	0	518	
5	0	0	0	0	518	
6	0	0	0	0	519	
7	0	0	0	0	519	
8	0	0	0	0	519	
9	0	0	0	0	519	
10	0	0	0	0	519	
11	0	0	0	0	521	
12	0	0	0	0	521	
13	0	0	0	0	522	
14	0	0	0	0	522	
15	0	0	0	0	522	
0	0	0	0	0	523	
1	0	0	0	0	523	
2	0	0	0	0	523	
3	0	0	0	0	523	
4	0	0	0	0	523	
5	0	0	0	0	523	
6	0	0	0	0	523	
7	0	0	0	0	524	
8	0	0	0	0	524	
9	0	0	0	0	524	
10	0	0	0	0	525	
11	0	0	0	0	525	
12	0	0	0	0	524	
13	0	0	0	0	524	
14	0	0	0	0	524	
15	0	0	0	0	523	
0	0	0	0	0	522	
1	0	0	0	0	522	
2	0	0	0	0	523	
3	0	0	0	0	523	
4	0	0	0	0	524	
5	0	0	0	0	525	
6	0	0	0	0	524	
7	0	0	0	0	525	
8	0	0	0	0	525	
9	0	0	0	0	525	
10	0	0	0	0	524	
11	0	0	0	0	522	
12	0	0	0	0	520	
13	0	0	0	0	518	
14	0	0	0	0	517	
15	0	0	0	0	517	
0	0	0	0	0	517	
1	0	0	0	0	516	
2	0	0	0	0	517	
3	0	0	0	0	517	
4	0	0	0	0	518	
5	0	0	0	0	518	
6	0	0	0	0	520	
7	0	0	0	0	519	
8	0	0	0	0	518	
9	0	0	0	0	516	
10	0	0	0	0	514	
11	0	0	0	0	513	
12	0	0	0	0	511	
13	0	0	0	0	511	
14	0	0	0	0	509	
15	0	0	0	0	508	
0	0	0	0	0	506	
1	0	0	0	0	504	
2	0	0	0	0	502	
3	0	0	0	0	500	
4	0	0	0	0	499	
5	0	0	0	0	499	
6	0	0	0	0	499	
7	0	0	0	0	499	
8	0	0	0	0	497	
9	0	0	0	0	495	
10	0	0	0	0	494	
11	0	0	0	0	492	
12	0	0	0	0	492	
13	0	0	0	0	489	
14	0	0	0	0	488	
15	0	0	0	0	487	
0	0	0	0	0	484	
1	0	0	0	0	482	
2	0	0	0	0	480	
3	0	0	0	0	478	
4	0	0	0	0	476	
5	0	0	0	0	476	
6	0	0	0	0	473	
7	0	0	0	0	472	
8	0	0	0	0	470	
9	0	0	0	0	467	
10	0	0	0	0	467	
11	0	0	0	0	465	
12	0	0	0	0	465	
13	0	0	0	0	465	
14	0	0	0	0	465	
15	0	0	0	0	465	
0	0	0	0	0	465	
1	0	0	0	0	465	
2	0	0	0	0	463	
3	0	0	0	0	461	
4	0	0	0	0	459	
5	0	0	0	0	457	
6	0	0	0	0	456	
7	0	0	0	0	455	
8	0	0	0	0	454	
9	0	0	0	0	454	
10	0	0	0	0	454	
11	0	0	0	0	454	
12	0	0	0	0	454	
13	0	0	0	0	454	
14	0	0	0	0	455	
15	0	0	0	0	455	
0	0	0	0	0	455	
1	0	0	0	0	455	
2	0	0	0	0	455	
3	0	0	0	0	455	
4	0	0	0	0	455	
5	0	0	0	0	454	
6	0	0	0	0	454	
7	0	0	0	0	454	
8	0	0	0	0	454	
9	0	0	0	0	454	
10	0	0	0	0	455	
11	0	0	0	0	455	
12	0	0	0	0	455	
13	0	0	0	0	455	
14	0	0	0	0	455	
15	0	0	0	0	455	
0	0	0	0	0	457	
1	0	0	0	0	458	
2	0	0	0	0	459	
3	0	0	0	0	459	
4	0	0	0	0	460	
5	0	0	0	0	462	
6	0	0	0	0	463	
7	0	0	0	0	463	
8	0	0	0	0	463	
9	0	0	0	0	464	
10	0	0	0	0	466	
11	0	0	0	0	467	
12	0	0	0	0	468	
13	0	0	0	0	468	
14	0	0	0	0	467	
15	0	0	0	0	466	
0	0	0	0	0	466	
1	0	0	0	0	465	
2	0	0	0	0	466	
3	0	0	0	0	467	
4	0	0	0	0	467	
5	0	0	0	0	470	
6	0	0	0	0	472	
7	0	0	0	0	473	
8	0	0	0	0	474	
9	0	0	0	0	475	
10	0	0	0	0	477	
11	0	0	0	0	478	
12	0	0	0	0	479	
13	0	0	0	0	479	
14	0	0	0	0	479	
15	0	0	0	0	480	
0	0	0	0	0	481	
1	0	0	0	0	483	
2	0	0	0	0	483	
3	0	0	0	0	484	
4	0	0	0	0	484	
5	0	0	0	0	484	
6	0	0	0	0	484	
7	0	0	0	0	485	
8	0	0	0	0	485	
9	0	0	0	0	486	
10	0	0	0	0	487	
11	0	0	0	0	488	
12	0	0	0	0	489	
13	0	0	0	0	489	
14	0	0	0	0	491	
15	0	0	0	0	493	
0	0	0	0	0	494	
1	0	0	0	0	495	
2	0	0	0	0	495	
3	0	0	0	0	495	
4	0	0	0	0	495	
5	0	0	0	0	495	
6	0	0	0	0	495	
7	0	0	0	0	496	
8	0	0	0	0	496	
9	0	0	0	0	495	
10	0	0	0	0	493	
11	0	0	0	0	492	
12	0	0	0	0	494	
13	0	0	0	0	495	
14	0	0	0	0	496	
15	0	0	0	0	496	
0	0	0	0	0	499	
1	0	0	0	0	499	
2	0	0	0	0	500	
3	0	0	0	0	502	
4	0	0	0	0	503	
5	0	0	0	0	502	
6	0	0	0	0	503	
7	0	0	0	0	504	
8	0	0	0	0	504	
9	0	0	0	0	506	
10	0	0	0	0	507	
11	0	0	0	0	507	
12	0	0	0	0	507	
13	0	0	0	0	505	
14	0	0	0	0	505	
15	0	0	0	0	505	
0	0	0	0	0	506	
1	0	0	0	0	505	
2	0	0	0	0	505	
3	0	0	0	0	506	
4	0	0	0	0	507	
5	0	0	0	0	508	
6	0	0	0	0	509	
7	0	0	0	0	509	
8	0	0	0	0	510	
9	0	0	0	0	509	
10	0	0	0	0	508	
11	0	0	0	0	508	
12	0	0	0	0	506	
13	0	0	0	0	505	
14	0	0	0	0	503	
15	0	0	0	0	503	
0	0	0	0	0	504	
1	0	0	0	0	505	
2	0	0	0	0	505	
3	0	0	0	0	507	
4	0	0	0	0	508	
5	0	0	0	0	510	
6	0	0	0	0	510	
7	0	0	0	0	511	
8	0	0	0	0	512	
9	0	0	0	0	512	
10	0	0	0	0	513	
11	0	0	0	0	512	
12	0	0	0	0	513	
13	0	0	0	0	515	
14	0	0	0	0	515	
15	0	0	0	0	516	
0	0	0	0	0	514	
1	0	0	0	0	514	
2	0	0	0	0	512	
3	0	0	0	0	512	
4	0	0	0	0	511	
5	0	0	0	0	511	
6	0	0	0	0	510	
7	0	0	0	0	510	
8	0	0	0	0	510	
9	0	0	0	0	510	
10	0	0	0	0	511	
11	0	0	0	0	512	
12	0	0	0	0	514	
13	0	0	0	0	515	
14	0	0	0	0	515	
15	0	0	0	0	515	
0	0	0	0	0	515	
1	0	0	0	0	514	
2	0	0	0	0	514	
3	0	0	0	0	514	
4	0	0	0	0	513	
5	0	0	0	0	512	
6	0	0	0	0	512	
7	0	0	0	0	512	
8	0	0	0	0	512	
9	0	0	0	0	511	
10	0	0	0	0	511	
11	0	0	0	0	510	
12	0	0	0	0	509	
13	0	0	0	0	509	
14	0	0	0	0	508	
15	0	0	0	0	508	
0	0	0	0	0	507	
1	0	0	0	0	506	
2	0	0	0	0	506	
3	0	0	0	0	505	
4	0	0	0	0	508	
5	0	0	0	0	508	
6	0	0	0	0	509	
7	0	0	0	0	510	
8	0	0	0	0	510	
9	0	0	0	0	511	
10	0	0	0	0	512	
11	0	0	0	0	512	
12	0	0	0	0	512	
13	0	0	0	0	511	
14	0	0	0	0	511	
15	0	0	0	0	511	
0	0	0	0	0	511	
1	0	0	0	0	512	
2	0	0	0	0	512	
3	0	0	0	0	512	
4	0	0	0	0	512	
5	0	0	0	0	512	
6	0	0	0	0	512	
7	0	0	0	0	510	
8	0	0	0	0	509	
9	0	0	0	0	509	
10	0	0	0	0	511	
11	0	0	0	0	513	
12	0	0	0	0	514	
13	0	0	0	0	515	
14	0	0	0	0	516	
15	0	0	0	0	517	
0	0	0	0	0	517	
1	0	0	0	0	517	
2	0	0	0	0	516	
3	0	0	0	0	516	
4	0	0	0	0	516	
5	0	0	0	0	516	
6	0	0	0	0	518	
7	0	0	0	0	519	
8	0	0	0	0	520	
9	0	0	0	0	521	
10	0	0	0	0	522	
11	0	0	0	0	524	
12	0	0	0	0	524	
13	0	0	0	0	523	
14	0	0	0	0	522	
15	0	0	0	0	521	
0	0	0	0	0	519	
1	0	0	0	0	518	
2	0	0	0	0	516	
3	0	0	0	0	515	
4	0	0	0	0	514	
5	0	0	0	0	514	
6	0	0	0	0	514	
7	0	0	0	0	515	
8	0	0	0	0	515	
9	0	0	0	0	515	
10	0	0	0	0	516	
11	0	0	0	0	516	
12	0	0	0	0	517	
13	0	0	0	0	517	
14	0	0	0	0	517	
15	0	0	0	0	518	
0	0	0	0	0	519	
1	0	0	0	0	519	
2	0	0	0	0	519	
3	0	0	0	0	518	
4	0	0	0	0	518	
5	0	0	0	0	517	
6	0	0	0	0	517	
7	0	0	0	0	518	
8	0	0	0	0	517	
9	0	0	0	0	516	
10	0	0	0	0	517	
11	0	0	0	0	518	
12	0	0	0	0	517	
13	0	0	0	0	518	
14	0	0	0	0	518	
15	0	0	0	0	519	
0	0	0	0	0	520	
1	0	0	0	0	520	
2	0	0	0	0	521	
3	0	0	0	0	521	
4	0	0	0	0	521	
5	0	0	0	0	521	
6	0	0	0	0	521	
7	0	0	0	0	520	
8	0	0	0	0	519	
9	0	0	0	0	519	
10	0	0	0	0	519	
11	0	0	0	0	520	
12	0	0	0	0	521	
13	0	0	0	0	521	
14	0	0	0	0	520	
15	0	0	0	0	520	
0	0	0	0	0	521	
1	0	0	0	0	522	
2	0	0	0	0	523	
3	0	0	0	0	524	
4	0	0	0	0	524	
5	0	0	0	0	524	
6	0	0	0	0	524	
7	0	0	0	0	522	
8	0	0	0	0	522	
9	0	0	0	0	521	
10	0	0	0	0	520	
11	0	0	0	0	520	
12	0	0	0	0	519	
13	0	0	0	0	519	
14	0	0	0	0	519	
15	0	0	0	0	518	
0	0	0	0	0	516	
1	0	0	0	0	514	
2	0	0	0	0	512	
3	0	0	0	0	512	
4	0	0	0	0	512	
5	0	0	0	0	511	
6	0	0	0	0	511	
7	0	0	0	0	512	
8	0	0	0	0	512	
9	0	0	0	0	513	
10	0	0	0	0	516	
11	0	0	0	0	518	
12	0	0	0	0	518	
13	0	0	0	0	518	
14	0	0	0	0	518	
15	0	0	0	0	517	
0	0	0	0	0	516	
1	0	0	0	0	515	
2	0	0	0	0	513	
3	0	0	0	0	513	
4	0	0	0	0	513	
5	0	0	0	0	513	
6	0	0	0	0	513	
7	0	0	0	0	511	
8	0	0	0	0	511	
9	0	0	0	0	511	
10	0	0	0	0	511	
11	0	0	0	0	511	
12	0	0	0	0	512	
13	0	0	0	0	512	
14	0	0	0	0	513	
15	0	0	0	0	512	
0	0	0	0	0	512	
1	0	0	0	0	512	
2	0	0	0	0	512	
3	0	0	0	0	511	
4	0	0	0	0	511	
5	0	0	0	0	510	
6	0	0	0	0	510	
7	0	0	0	0	510	
8	0	0	0	0	511	
9	0	0	0	0	513	
10	0	0	0	0	514	
11	0	0	0	0	515	
12	0	0	0	0	515	
13	0	0	0	0	515	
14	0	0	0	0	515	
15	0	0	0	0	516	
0	0	0	0	0	516	
1	0	0	0	0	516	
2	0	0	0	0	516	
3	0	0	0	0	515	
4	0	0	0	0	515	
5	0	0	0	0	515	
6	0	0	0	0	515	
7	0	0	0	0	513	
8	0	0	0	0	512	
9	0	0	0	0	511	
10	0	0	0	0	509	
11	0	0	0	0	510	
12	0	0	0	0	510	
13	0	0	0	0	511	
14	0	0	0	0	511	
15	0	0	0	0	511	
0	0	0	0	0	511	
1	0	0	0	0	511	
2	0	0	0	0	510	
3	0	0	0	0	511	
4	0	0	0	0	511	
5	0	0	0	0	512	
6	0	0	0	0	514	
7	0	0	0	0	515	
8	0	0	0	0	515	
9	0	0	0	0	514	
10	0	0	0	0	514	
11	0	0	0	0	514	
12	0	0	0	0	514	
13	0	0	0	0	515	
14	0	0	0	0	515	
15	0	0	0	0	515	
0	0	0	0	0	514	
1	0	0	0	0	514	
2	0	0	0	0	515	
3	0	0	0	0	515	
4	0	0	0	0	514	
5	0	0	0	0	514	
6	0	0	0	0	515	
7	0	0	0	0	515	
8	0	0	0	0	515	
9	0	0	0	0	515	
10	0	0	0	0	515	
11	0	0	0	0	514	
12	0	0	0	0	514	
13	0	0	0	0	513	
14	0	0	0	0	512	
15	0	0	0	0	512	
0	0	0	0	0	512	
1	0	0	0	0	511	
2	0	0	0	0	511	
3	0	0	0	0	511	
4	0	0	0	0	512	
5	0	0	0	0	512	
6	0	0	0	0	512	
7	0	0	0	0	512	
8	0	0	0	0	512	
9	0	0	0	0	512	
10	0	0	0	0	513	
11	0	0	0	0	514	
12	0	0	0	0	513	
13	0	0	0	0	514	
14	0	0	0	0	514	
15	0	0	0	0	513	
0	0	0	0	0	512	
1	0	0	0	0	512	
2	0	0	0	0	512	
3	0	0	0	0	511	
4	0	0	0	0	511	
5	0	0	0	0	512	
6	0	0	0	0	512	
7	0	0	0	0	512	
8	0	0	0	0	511	
9	0	0	0	0	510	
10	0	0	0	0	509	
11	0	0	0	0	510	
12	0	0	0	0	511	
13	0	0	0	0	512	
14	0	0	0	0	515	
15	0	0	0	0	517	
0	0	0	0	0	519	
1	0	0	0	0	520	
2	0	0	0	0	521	
3	0	0	0	0	523	
4	0	0	0	0	523	
5	0	0	0	0	523	
6	0	0	0	0	524	
7	0	0	0	0	525	
8	0	0	0	0	526	
9	0	0	0	0	528	
10	0	0	0	0	528	
11	0	0	0	0	529	
12	0	0	0	0	529	
13	0	0	0	0	528	
14	0	0	0	0	527	
15	0	0	0	0	525	
0	0	0	0	0	524	
1	0	0	0	0	523	
2	0	0	0	0	521	
3	0	0	0	0	520	
4	0	0	0	0	519	
5	0	0	0	0	518	
6	0	0	0	0	517	
7	0	0	0	0	517	
8	0	0	0	0	518	
9	0	0	0	0	519	
10	0	0	0	0	519	
11	0	0	0	0	520	
12	0	0	0	0	520	
13	0	0	0	0	522	
14	0	0	0	0	524	
15	0	0	0	0	525	
0	0	0	0	0	526	
1	0	0	0	0	526	
2	0	0	0	0	527	
3	0	0	0	0	528	
4	0	0	0	0	529	
5	0	0	0	0	529	
6	0	0	0	0	529	
7	0	0	0	0	528	
8	0	0	0	0	527	
9	0	0	0	0	526	
10	0	0	0	0	525	
11	0	0	0	0	523	
12	0	0	0	0	521	
13	0	0	0	0	520	
14	0	0	0	0	519	
15	0	0	0	0	517	
0	0	0	0	0	516	
1	0	0	0	0	515	
2	0	0	0	0	513	
3	0	0	0	0	512	
4	0	0	0	0	512	
5	0	0	0	0	511	
6	0	0	0	0	512	
7	0	0	0	0	512	
8	0	0	0	0	511	
9	0	0	0	0	511	
10	0	0	0	0	511	
11	0	0	0	0	511	
12	0	0	0	0	511	
13	0	0	0	0	512	
14	0	0	0	0	512	
15	0	0	0	0	512	
0	0	0	0	0	513	
1	0	0	0	0	512	
2	0	0	0	0	512	
3	0	0	0	0	511	
4	0	0	0	0	510	
5	0	0	0	0	510	
6	0	0	0	0	509	
7	0	0	0	0	508	
8	0	0	0	0	506	
9	0	0	0	0	504	
10	0	0	0	0	504	
11	0	0	0	0	504	
12	0	0	0	0	504	
13	0	0	0	0	504	
14	0	0	0	0	505	
15	0	0	0	0	505	
0	0	0	0	0	506	
1	0	0	0	0	507	
2	0	0	0	0	507	
3	0	0	0	0	507	
4	0	0	0	0	507	
5	0	0	0	0	506	
6	0	0	0	0	506	
7	0	0	0	0	506	
8	0	0	0	0	506	
9	0	0	0	0	505	
10	0	0	0	0	505	
11	0	0	0	0	505	
12	0	0	0	0	506	
13	0	0	0	0	506	
14	0	0	0	0	507	
15	0	0	0	0	507	
0	0	0	0	0	507	
1	0	0	0	0	509	
2	0	0	0	0	511	
3	0	0	0	0	512	
4	0	0	0	0	513	
5	0	0	0	0	513	
6	0	0	0	0	514	
7	0	0	0	0	514	
8	0	0	0	0	514	
9	0	0	0	0	515	
10	0	0	0	0	515	
11	0	0	0	0	514	
12	0	0	0	0	513	
13	0	0	0	0	513	
14	0	0	0	0	512	
15	0	0	0	0	510	
0	0	0	0	0	509	
1	0	0	0	0	508	
2	0	0	0	0	506	
3	0	0	0	0	505	
4	0	0	0	0	504	
5	0	0	0	0	505	
6	0	0	0	0	508	
7	0	0	0	0	513	
8	0	0	0	0	519	
9	0	0	0	0	527	
10	0	0	0	0	537	
11	0	0	0	0	550	
12	0	0	0	0	566	
13	0	0	0	0	580	
14	0	0	0	0	596	
15	0	0	0	0	612	
0	0	0	0	0	628	
1	0	0	0	0	642	
2	0	0	0	0	656	
3	0	0	0	0	675	
4	0	0	0	0	694	
5	0	0	0	0	714	
6	0	0	0	0	734	
7	0	0	0	0	755	
8	0	0	0	0	777	
9	0	0	0	0	802	
10	0	0	0	0	827	
11	0	0	0	0	854	
12	0	0	0	0	883	
13	0	0	0	0	911	
14	0	0	0	0	939	
15	0	0	0	0	968	
0	0	0	0	0	999	
1	0	0	0	0	1021	
2	0	0	0	0	1022	
3	0	0	0	0	1022	
4	0	0	0	0	1022	
5	0	0	0	0	1022	
6	0	0	0	0	1022	
7	0	0	0	0	1022	
8	0	0	0	0	1022	
9	0	0	0	0	1022	
10	0	0	0	0	1022	
11	0	0	0	0	1005	
12	0	0	0	0	974	
13	0	0	0	0	939	
14	0	0	0	0	896	
15	0	0	0	0	847	
0	0	0	0	0	793	
1	0	0	0	0	736	
2	0	0	0	0	682	
3	0	0	0	0	629	
4	0	0	0	0	582	
5	0	0	0	0	541	
6	0	0	0	0	507	
7	0	0	0	0	479	
8	0	0	0	0	460	
9	0	0	0	0	445	
10	0	0	0	0	431	
11	0	0	0	0	420	
12	0	0	0	0	410	
13	0	0	0	0	404	
14	0	0	0	0	399	
15	0	0	0	0	395	
0	0	0	0	0	392	
1	0	0	0	0	390	
2	0	0	0	0	390	
3	0	0	0	0	390	
4	0	0	0	0	389	
5	0	0	0	0	390	
6	0	0	0	0	391	
7	0	0	0	0	393	
8	0	0	0	0	395	
9	0	0	0	0	396	
10	0	0	0	0	397	
11	0	0	0	0	398	
12	0	0	0	0	399	
13	0	0	0	0	400	
14	0	0	0	0	401	
15	0	0	0	0	401	
0	0	0	0	0	400	
1	0	0	0	0	399	
2	0	0	0	0	398	
3	0	0	0	0	396	
4	0	0	0	0	395	
5	0	0	0	0	395	
6	0	0	0	0	395	
7	0	0	0	0	395	
8	0	0	0	0	395	
9	0	0	0	0	396	
10	0	0	0	0	398	
11	0	0	0	0	398	
12	0	0	0	0	398	
13	0	0	0	0	399	
14	0	0	0	0	399	
15	0	0	0	0	400	
0	0	0	0	0	400	
1	0	0	0	0	400	
2	0	0	0	0	400	
3	0	0	0	0	401	
4	0	0	0	0	401	
5	0	0	0	0	402	
6	0	0	0	0	403	
7	0	0	0	0	403	
8	0	0	0	0	404	
9	0	0	0	0	405	
10	0	0	0	0	407	
11	0	0	0	0	409	
12	0	0	0	0	411	
13	0	0	0	0	412	
14	0	0	0	0	413	
15	0	0	0	0	414	
0	0	0	0	0	415	
1	0	0	0	0	416	
2	0	0	0	0	417	
3	0	0	0	0	417	
4	0	0	0	0	418	
5	0	0	0	0	419	
6	0	0	0	0	419	
7	0	0	0	0	422	
8	0	0	0	0	423	
9	0	0	0	0	425	
10	0	0	0	0	427	
11	0	0	0	0	429	
12	0	0	0	0	431	
13	0	0	0	0	432	
14	0	0	0	0	434	
15	0	0	0	0	437	
0	0	0	0	0	439	
1	0	0	0	0	440	
2	0	0	0	0	442	
3	0	0	0	0	443	
4	0	0	0	0	444	
5	0	0	0	0	444	
6	0	0	0	0	444	
7	0	0	0	0	444	
8	0	0	0	0	444	
9	0	0	0	0	445	
10	0	0	0	0	446	
11	0	0	0	0	446	
12	0	0	0	0	448	
13	0	0	0	0	451	
14	0	0	0	0	451	
15	0	0	0	0	451	
0	0	0	0	0	451	
1	0	0	0	0	451	
2	0	0	0	0	453	
3	0	0	0	0	455	
4	0	0	0	0	457	
5	0	0	0	0	459	
6	0	0	0	0	461	
7	0	0	0	0	462	
8	0	0	0	0	463	
9	0	0	0	0	463	
10	0	0	0	0	464	
11	0	0	0	0	465	
12	0	0	0	0	466	
13	0	0	0	0	468	
14	0	0	0	0	470	
15	0	0	0	0	471	
0	0	0	0	0	473	
1	0	0	0	0	473	
2	0	0	0	0	475	
3	0	0	0	0	476	
4	0	0	0	0	478	
5	0	0	0	0	479	
6	0	0	0	0	481	
7	0	0	0	0	483	
8	0	0	0	0	485	
9	0	0	0	0	486	
10	0	0	0	0	487	
11	0	0	0	0	487	
12	0	0	0	0	487	
13	0	0	0	0	488	
14	0	0	0	0	489	
15	0	0	0	0	491	
0	0	0	0	0	491	
1	0	0	0	0	492	
2	0	0	0	0	492	
3	0	0	0	0	492	
4	0	0	0	0	493	
5	0	0	0	0	494	
6	0	0	0	0	495	
7	0	0	0	0	496	
8	0	0	0	0	497	
9	0	0	0	0	498	
10	0	0	0	0	499	
11	0	0	0	0	499	
12	0	0	0	0	499	
13	0	0	0	0	500	
14	0	0	0	0	501	
15	0	0	0	0	503	
0	0	0	0	0	504	
1	0	0	0	0	505	
2	0	0	0	0	507	
3	0	0	0	0	508	
4	0	0	0	0	507	
5	0	0	0	0	507	
6	0	0	0	0	508	
7	0	0	0	0	508	
8	0	0	0	0	509	
9	0	0	0	0	510	
10	0	0	0	0	511	
11	0	0	0	0	511	
12	0	0	0	0	511	
13	0	0	0	0	510	
14	0	0	0	0	509	
15	0	0	0	0	509	
0	0	0	0	0	509	
1	0	0	0	0	510	
2	0	0	0	0	510	
3	0	0	0	0	511	
4	0	0	0	0	511	
5	0	0	0	0	510	
6	0	0	0	0	510	
7	0	0	0	0	509	
8	0	0	0	0	508	
9	0	0	0	0	508	
10	0	0	0	0	507	
11	0	0	0	0	508	
12	0	0	0	0	510	
13	0	0	0	0	512	
14	0	0	0	0	513	
15	0	0	0	0	516	
0	0	0	0	0	516	
1	0	0	0	0	517	
2	0	0	0	0	517	
3	0	0	0	0	517	
4	0	0	0	0	517	
5	0	0	0	0	517	
6	0	0	0	0	518	
7	0	0	0	0	518	
8	0	0	0	0	519	
9	0	0	0	0	519	
10	0	0	0	0	519	
11	0	0	0	0	519	
12	0	0	0	0	519	
13	0	0	0	0	520	
14	0	0	0	0	520	
15	0	0	0	0	520	
0	0	0	0	0	519	
1	0	0	0	0	519	
2	0	0	0	0	520	
3	0	0	0	0	520	
4	0	0	0	0	520	
5	0	0	0	0	521	
6	0	0	0	0	522	
7	0	0	0	0	522	
8	0	0	0	0	522	
9	0	0	0	0	523	
10	0	0	0	0	523	
11	0	0	0	0	523	
12	0	0	0	0	524	
13	0	0	0	0	524	
14	0	0	0	0	526	
15	0	0	0	0	527	
0	0	0	0	0	527	
1	0	0	0	0	527	
2	0	0	0	0	527	
3	0	0	0	0	527	
4	0	0	0	0	527	
5	0	0	0	0	528	
6	0	0	0	0	529	
7	0	0	0	0	530	
8	0	0	0	0	529	
9	0	0	0	0	531	
10	0	0	0	0	531	
11	0	0	0	0	533	
12	0	0	0	0	533	
13	0	0	0	0	533	
14	0	0	0	0	532	
15	0	0	0	0	532	
0	0	0	0	0	531	
1	0	0	0	0	529	
2	0	0	0	0	526	
3	0	0	0	0	526	
4	0	0	0	0	524	
5	0	0	0	0	522	
6	0	0	0	0	521	
7	0	0	0	0	520	
8	0	0	0	0	520	
9	0	0	0	0	521	
10	0	0	0	0	521	
11	0	0	0	0	520	
12	0	0	0	0	520	
13	0	0	0	0	522	
14	0	0	0	0	522	
15	0	0	0	0	523	
0	0	0	0	0	523	
1	0	0	0	0	523	
2	0	0	0	0	523	
3	0	0	0	0	521	
4	0	0	0	0	520	
5	0	0	0	0	519	
6	0	0	0	0	519	
7	0	0	0	0	518	
8	0	0	0	0	516	
9	0	0	0	0	515	
10	0	0	0	0	514	
11	0	0	0	0	513	
12	0	0	0	0	515	
13	0	0	0	0	514	
14	0	0	0	0	513	
15	0	0	0	0	512	
0	0	0	0	0	512	
1	0	0	0	0	512	
2	0	0	0	0	511	
3	0	0	0	0	508	
4	0	0	0	0	507	
5	0	0	0	0	505	
6	0	0	0	0	504	
7	0	0	0	0	501	
8	0	0	0	0	499	
9	0	0	0	0	497	
10	0	0	0	0	496	
11	0	0	0	0	494	
12	0	0	0	0	492	
13	0	0	0	0	490	
14	0	0	0	0	488	
15	0	0	0	0	487	
0	0	0	0	0	486	
1	0	0	0	0	485	
2	0	0	0	0	483	
3	0	0	0	0	481	
4	0	0	0	0	480	
5	0	0	0	0	478	
6	0	0	0	0	476	
7	0	0	0	0	476	
8	0	0	0	0	474	
9	0	0	0	0	473	
10	0	0	0	0	472	
11	0	0	0	0	472	
12	0	0	0	0	471	
13	0	0	0	0	470	
14	0	0	0	0	469	
15	0	0	0	0	468	
0	0	0	0	0	467	
1	0	0	0	0	465	
2	0	0	0	0	464	
3	0	0	0	0	463	
4	0	0	0	0	462	
5	0	0	0	0	460	
6	0	0	0	0	459	
7	0	0	0	0	458	
8	0	0	0	0	457	
9	0	0	0	0	458	
10	0	0	0	0	458	
11	0	0	0	0	459	
12	0	0	0	0	460	
13	0	0	0	0	460	
14	0	0	0	0	460	
15	0	0	0	0	460	
0	0	0	0	0	459	
1	0	0	0	0	458	
2	0	0	0	0	457	
3	0	0	0	0	456	
4	0	0	0	0	455	
5	0	0	0	0	454	
6	0	0	0	0	455	
7	0	0	0	0	454	
8	0	0	0	0	454	
9	0	0	0	0	453	
10	0	0	0	0	452	
11	0	0	0	0	452	
12	0	0	0	0	452	
13	0	0	0	0	453	
14	0	0	0	0	455	
15	0	0	0	0	456	
0	0	0	0	0	457	
1	0	0	0	0	458	
2	0	0	0	0	459	
3	0	0	0	0	459	
4	0	0	0	0	460	
5	0	0	0	0	460	
6	0	0	0	0	460	
7	0	0	0	0	460	
8	0	0	0	0	461	
9	0	0	0	0	463	
10	0	0	0	0	463	
11	0	0	0	0	464	
12	0	0	0	0	464	
13	0	0	0	0	463	
14	0	0	0	0	462	
15	0	0	0	0	462	
0	0	0	0	0	463	
1	0	0	0	0	464	
2	0	0	0	0	466	
3	0	0	0	0	469	
4	0	0	0	0	470	
5	0	0	0	0	471	
6	0	0	0	0	472	
7	0	0	0	0	471	
8	0	0	0	0	472	
9	0	0	0	0	473	
10	0	0	0	0	472	
11	0	0	0	0	471	
12	0	0	0	0	471	
13	0	0	0	0	470	
14	0	0	0	0	471	
15	0	0	0	0	471	
0	0	0	0	0	472	
1	0	0	0	0	473	
2	0	0	0	0	475	
3	0	0	0	0	476	
4	0	0	0	0	478	
5	0	0	0	0	480	
6	0	0	0	0	482	
7	0	0	0	0	484	
8	0	0	0	0	485	
9	0	0	0	0	486	
10	0	0	0	0	486	
11	0	0	0	0	487	
12	0	0	0	0	487	
13	0	0	0	0	488	
14	0	0	0	0	487	
15	0	0	0	0	487	
0	0	0	0	0	488	
1	0	0	0	0	489	
2	0	0	0	0	489	
3	0	0	0	0	489	
4	0	0	0	0	489	
5	0	0	0	0	489	
6	0	0	0	0	489	
7	0	0	0	0	489	
8	0	0	0	0	489	
9	0	0	0	0	489	
10	0	0	0	0	489	
11	0	0	0	0	489	
12	0	0	0	0	492	
13	0	0	0	0	495	
14	0	0	0	0	498	
15	0	0	0	0	500	
0	0	0	0	0	502	
1	0	0	0	0	503	
2	0	0	0	0	503	
3	0	0	0	0	504	
4	0	0	0	0	504	
5	0	0	0	0	504	
6	0	0	0	0	503	
7	0	0	0	0	503	
8	0	0	0	0	504	
9	0	0	0	0	503	
10	0	0	0	0	503	
11	0	0	0	0	504	
12	0	0	0	0	504	
13	0	0	0	0	504	
14	0	0	0	0	504	
15	0	0	0	0	504	
0	0	0	0	0	504	
1	0	0	0	0	504	
2	0	0	0	0	507	
3	0	0	0	0	508	
4	0	0	0	0	509	
5	0	0	0	0	509	
6	0	0	0	0	510	
7	0	0	0	0	510	
8	0	0	0	0	510	
9	0	0	0	0	510	
10	0	0	0	0	509	
11	0	0	0	0	510	
12	0	0	0	0	510	
13	0	0	0	0	510	
14	0	0	0	0	509	
15	0	0	0	0	508	
0	0	0	0	0	508	
1	0	0	0	0	508	
2	0	0	0	0	508	
3	0	0	0	0	508	
4	0	0	0	0	509	
5	0	0	0	0	508	
6	0	0	0	0	508	
7	0	0	0	0	510	
8	0	0	0	0	511	
9	0	0	0	0	512	
10	0	0	0	0	511	
11	0	0	0	0	511	
12	0	0	0	0	511	
13	0	0	0	0	510	
14	0	0	0	0	511	
15	0	0	0	0	511	
0	0	0	0	0	511	
1	0	0	0	0	511	
2	0	0	0	0	511	
3	0	0	0	0	511	
4	0	0	0	0	512	
5	0	0	0	0	512	
6	0	0	0	0	512	
7	0	0	0	0	512	
8	0	0	0	0	512	
9	0	0	0	0	511	
10	0	0	0	0	512	
11	0	0	0	0	511	
12	0	0	0	0	511	
13	0	0	0	0	510	
14	0	0	0	0	509	
15	0	0	0	0	508	
0	0	0	0	0	508	
1	0	0	0	0	507	
2	0	0	0	0	506	
3	0	0	0	0	504	
4	0	0	0	0	504	
5	0	0	0	0	504	
6	0	0	0	0	504	
7	0	0	0	0	504	
8	0	0	0	0	504	
9	0	0	0	0	505	
10	0	0	0	0	507	
11	0	0	0	0	508	
12	0	0	0	0	509	
13	0	0	0	0	509	
14	0	0	0	0	508	
15	0	0	0	0	510	
0	0	0	0	0	510	
1	0	0	0	0	510	
2	0	0	0	0	510	
3	0	0	0	0	509	
4	0	0	0	0	508	
5	0	0	0	0	507	
6	0	0	0	0	508	
7	0	0	0	0	508	
8	0	0	0	0	508	
9	0	0	0	0	508	
10	0	0	0	0	509	
11	0	0	0	0	509	
12	0	0	0	0	509	
13	0	0	0	0	510	
14	0	0	0	0	510	
15	0	0	0	0	511	
0	0	0	0	0	511	
1	0	0	0	0	511	
2	0	0	0	0	512	
3	0	0	0	0	512	
4	0	0	0	0	512	
5	0	0	0	0	511	
6	0	0	0	0	510	
7	0	0	0	0	509	
8	0	0	0	0	508	
9	0	0	0	0	507	
10	0	0	0	0	508	
11	0	0	0	0	508	
12	0	0	0	0	509	
13	0	0	0	0	510	
14	0	0	0	0	511	
15	0	0	0	0	512	
0	0	0	0	0	512	
1	0	0	0	0	512	
2	0	0	0	0	513	
3	0	0	0	0	514	
4	0	0	0	0	514	
5	0	0	0	0	516	
6	0	0	0	0	515	
7	0	0	0	0	515	
8	0	0	0	0	515	
9	0	0	0	0	514	
10	0	0	0	0	515	
11	0	0	0	0	513	
12	0	0	0	0	513	
13	0	0	0	0	513	
14	0	0	0	0	513	
15	0	0	0	0	513	
0	0	0	0	0	513	
1	0	0	0	0	512	
2	0	0	0	0	512	
3	0	0	0	0	512	
4	0	0	0	0	512	
5	0	0	0	0	512	
6	0	0	0	0	511	
7	0	0	0	0	511	
8	0	0	0	0	512	
9	0	0	0	0	513	
10	0	0	0	0	515	
11	0	0	0	0	516	
12	0	0	0	0	517	
13	0	0	0	0	516	
14	0	0	0	0	517	
15	0	0	0	0	516	
0	0	0	0	0	516	
1	0	0	0	0	516	
2	0	0	0	0	515	
3	0	0	0	0	514	
4	0	0	0	0	513	
5	0	0	0	0	513	
6	0	0	0	0	513	
7	0	0	0	0	513	
8	0	0	0	0	514	
9	0	0	0	0	514	
10	0	0	0	0	513	
11	0	0	0	0	514	
12	0	0	0	0	514	
13	0	0	0	0	514	
14	0	0	0	0	514	
15	0	0	0	0	514	
0	0	0	0	0	513	
1	0	0	0	0	513	
2	0	0	0	0	512	
3	0	0	0	0	512	
4	0	0	0	0	511	
5	0	0	0	0	510	
6	0	0	0	0	510	
7	0	0	0	0	509	
8	0	0	0	0	510	
9	0	0	0	0	510	
10	0	0	0	0	510	
11	0	0	0	0	510	
12	0	0	0	0	511	
13	0	0	0	0	512	
14	0	0	0	0	512	
15	0	0	0	0	512	
0	0	0	0	0	512	
1	0	0	0	0	512	
2	0	0	0	0	512	
3	0	0	0	0	513	
4	0	0	0	0	514	
5	0	0	0	0	514	
6	0	0	0	0	514	
7	0	0	0	0	514	
8	0	0	0	0	513	
9	0	0	0	0	513	
10	0	0	0	0	513	
11	0	0	0	0	513	
12	0	0	0	0	513	
13	0	0	0	0	512	
14	0	0	0	0	511	
15	0	0	0	0	510	
0	0	0	0	0	510	
1	0	0	0	0	510	
2	0	0	0	0	512	
3	0	0	0	0	514	
4	0	0	0	0	514	
5	0	0	0	0	515	
6	0	0	0	0	515	
7	0	0	0	0	516	
8	0	0	0	0	518	
9	0	0	0	0	518	
10	0	0	0	0	518	
11	0	0	0	0	517	
12	0	0	0	0	516	
13	0	0	0	0	515	
14	0	0	0	0	514	
15	0	0	0	0	514	
0	0	0	0	0	515	
1	0	0	0	0	515	
2	0	0	0	0	515	
3	0	0	0	0	515	
4	0	0	0	0	515	
5	0	0	0	0	517	
6	0	0	0	0	518	
7	0	0	0	0	519	
8	0	0	0	0	519	
9	0	0	0	0	520	
10	0	0	0	0	520	
11	0	0	0	0	520	
12	0	0	0	0	520	
13	0	0	0	0	520	
14	0	0	0	0	520	
15	0	0	0	0	520	
0	0	0	0	0	519	
1	0	0	0	0	518	
2	0	0	0	0	518	
3	0	0	0	0	517	
4	0	0	0	0	517	
5	0	0	0	0	516	
6	0	0	0	0	516	
7	0	0	0	0	516	
8	0	0	0	0	518	
9	0	0	0	0	518	
10	0	0	0	0	518	
11	0	0	0	0	518	
12	0	0	0	0	518	
13	0	0	0	0	518	
14	0	0	0	0	518	
15	0	0	0	0	519	
0	0	0	0	0	519	
1	0	0	0	0	521	
2	0	0	0	0	522	
3	0	0	0	0	522	
4	0	0	0	0	520	
5	0	0	0	0	519	
6	0	0	0	0	518	
7	0	0	0	0	517	
8	0	0	0	0	517	
9	0	0	0	0	517	
10	0	0	0	0	516	
11	0	0	0	0	515	
12	0	0	0	0	515	
13	0	0	0	0	515	
14	0	0	0	0	515	
15	0	0	0	0	515	
0	0	0	0	0	515	
1	0	0	0	0	515	
2	0	0	0	0	514	
3	0	0	0	0	514	
4	0	0	0	0	513	
5	0	0	0	0	512	
6	0	0	0	0	512	
7	0	0	0	0	511	
8	0	0	0	0	510	
9	0	0	0	0	510	
10	0	0	0	0	509	
11	0	0	0	0	508	
12	0	0	0	0	508	
13	0	0	0	0	508	
14	0	0	0	0	509	
15	0	0	0	0	509	
0	0	0	0	0	511	
1	0	0	0	0	512	
2	0	0	0	0	512	
3	0	0	0	0	514	
4	0	0	0	0	515	
5	0	0	0	0	515	
6	0	0	0	0	515	
7	0	0	0	0	516	
8	0	0	0	0	515	
9	0	0	0	0	515	
10	0	0	0	0	514	
11	0	0	0	0	514	
12	0	0	0	0	514	
13	0	0	0	0	513	
14	0	0	0	0	513	
15	0	0	0	0	512	
0	0	0	0	0	511	
1	0	0	0	0	510	
2	0	0	0	0	511	
3	0	0	0	0	511	
4	0	0	0	0	511	
5	0	0	0	0	510	
6	0	0	0	0	511	
7	0	0	0	0	513	
8	0	0	0	0	515	
9	0	0	0	0	514	
10	0	0	0	0	513	
11	0	0	0	0	513	
12	0	0	0	0	513	
13	0	0	0	0	514	
14	0	0	0	0	514	
15	0	0	0	0	514	
0	0	0	0	0	512	
1	0	0	0	0	512	
2	0	0	0	0	512	
3	0	0	0	0	512	
4	0	0	0	0	512	
5	0	0	0	0	512	
6	0	0	0	0	513	
7	0	0	0	0	513	
8	0	0	0	0	514	
9	0	0	0	0	514	
10	0	0	0	0	514	
11	0	0	0	0	514	
12	0	0	0	0	514	
13	0	0	0	0	515	
14	0	0	0	0	515	
15	0	0	0	0	516	
0	0	0	0	0	517	
1	0	0	0	0	518	
2	0	0	0	0	516	
3	0	0	0	0	516	
4	0	0	0	0	516	
5	0	0	0	0	516	
6	0	0	0	0	516	
7	0	0	0	0	515	
8	0	0	0	0	515	
9	0	0	0	0	513	
10	0	0	0	0	513	
11	0	0	0	0	513	
12	0	0	0	0	513	
13	0	0	0	0	513	
14	0	0	0	0	514	
15	0	0	0	0	516	
0	0	0	0	0	517	
1	0	0	0	0	518	
2	0	0	0	0	517	
3	0	0	0	0	518	
4	0	0	0	0	519	
5	0	0	0	0	520	
6	0	0	0	0	520	
7	0	0	0	0	519	
8	0	0	0	0	518	
9	0	0	0	0	517	
10	0	0	0	0	517	
11	0	0	0	0	516	
12	0	0	0	0	517	
13	0	0	0	0	517	
14	0	0	0	0	519	
15	0	0	0	0	521	
0	0	0	0	0	524	
1	0	0	0	0	526	
2	0	0	0	0	527	
3	0	0	0	0	528	
4	0	0	0	0	529	
5	0	0	0	0	529	
6	0	0	0	0	530	
7	0	0	0	0	531	
8	0	0	0	0	533	
9	0	0	0	0	535	
10	0	0	0	0	536	
11	0	0	0	0	537	
12	0	0	0	0	537	
13	0	0	0	0	537	
14	0	0	0	0	537	
15	0	0	0	0	536	
0	0	0	0	0	534	
1	0	0	0	0	530	
2	0	0	0	0	527	
3	0	0	0	0	525	
4	0	0	0	0	523	
5	0	0	0	0	524	
6	0	0	0	0	524	
7	0	0	0	0	525	
8	0	0	0	0	524	
9	0	0	0	0	525	
10	0	0	0	0	525	
11	0	0	0	0	527	
12	0	0	0	0	527	
13	0	0	0	0	529	
14	0	0	0	0	530	
15	0	0	0	0	532	
0	0	0	0	0	533	
1	0	0	0	0	534	
2	0	0	0	0	535	
3	0	0	0	0	535	
4	0	0	0	0	536	
5	0	0	0	0	536	
6	0	0	0	0	535	
7	0	0	0	0	534	
8	0	0	0	0	534	
9	0	0	0	0	533	
10	0	0	0	0	531	
11	0	0	0	0	530	
12	0	0	0	0	529	
13	0	0	0	0	528	
14	0	0	0	0	527	
15	0	0	0	0	525	
0	0	0	0	0	523	
1	0	0	0	0	522	
2	0	0	0	0	519	
3	0	0	0	0	517	
4	0	0	0	0	514	
5	0	0	0	0	513	
6	0	0	0	0	513	
7	0	0	0	0	512	
8	0	0	0	0	512	
9	0	0	0	0	512	
10	0	0	0	0	514	
11	0	0	0	0	515	
12	0	0	0	0	515	
13	0	0	0	0	514	
14	0	0	0	0	514	
15	0	0	0	0	513	
0	0	0	0	0	513	
1	0	0	0	0	515	
2	0	0	0	0	515	
3	0	0	0	0	516	
4	0	0	0	0	515	
5	0	0	0	0	513	
6	0	0	0	0	512	
7	0	0	0	0	510	
8	0	0	0	0	508	
9	0	0	0	0	507	
10	0	0	0	0	506	
11	0	0	0	0	505	
12	0	0	0	0	504	
13	0	0	0	0	503	
14	0	0	0	0	503	
15	0	0	0	0	502	
0	0	0	0	0	500	
1	0	0	0	0	499	
2	0	0	0	0	498	
3	0	0	0	0	499	
4	0	0	0	0	501	
5	0	0	0	0	503	
6	0	0	0	0	504	
7	0	0	0	0	506	
8	0	0	0	0	508	
9	0	0	0	0	509	
10	0	0	0	0	510	
11	0	0	0	0	510	
12	0	0	0	0	510	
13	0	0	0	0	511	
14	0	0	0	0	511	
15	0	0	0	0	510	
0	0	0	0	0	510	
1	0	0	0	0	510	
2	0	0	0	0	510	
3	0	0	0	0	510	
4	0	0	0	0	511	
5	0	0	0	0	512	
6	0	0	0	0	512	
7	0	0	0	0	511	
8	0	0	0	0	511	
9	0	0	0	0	510	
10	0	0	0	0	510	
11	0	0	0	0	510	
12	0	0	0	0	509	
13	0	0	0	0	509	
14	0	0	0	0	508	
15	0	0	0	0	508	
0	0	0	0	0	507	
1	0	0	0	0	505	
2	0	0	0	0	505	
3	0	0	0	0	507	
4	0	0	0	0	508	
5	0	0	0	0	508	
6	0	0	0	0	511	
7	0	0	0	0	512	
8	0	0	0	0	515	
9	0	0	0	0	521	
10	0	0	0	0	529	
11	0	0	0	0	540	
12	0	0	0	0	551	
13	0	0	0	0	564	
14	0	0	0	0	578	
15	0	0	0	0	593	
0	0	0	0	0	609	
1	0	0	0	0	625	
2	0	0	0	0	639	
3	0	0	0	0	655	
4	0	0	0	0	672	
5	0	0	0	0	691	
6	0	0	0	0	711	
7	0	0	0	0	732	
8	0	0	0	0	756	
9	0	0	0	0	780	
10	0	0	0	0	805	
11	0	0	0	0	829	
12	0	0	0	0	854	
13	0	0	0	0	882	
14	0	0	0	0	910	
15	0	0	0	0	939	
0	0	0	0	0	968	
1	0	0	0	0	998	
2	0	0	0	0	1021	
3	0	0	0	0	1022	
4	0	0	0	0	1022	
5	0	0	0	0	1022	
6	0	0	0	0	1022	
7	0	0	0	0	1022	
8	0	0	0	0	1022	
9	0	0	0	0	1022	
10	0	0	0	0	1022	
11	0	0	0	0	1022	
12	0	0	0	0	1004	
13	0	0	0	0	974	
14	0	0	0	0	937	
15	0	0	0	0	894	
0	0	0	0	0	844	
1	0	0	0	0	791	
2	0	0	0	0	735	
3	0	0	0	0	680	
4	0	0	0	0	630	
5	0	0	0	0	585	
6	0	0	0	0	546	
7	0	0	0	0	514	
8	0	0	0	0	487	
9	0	0	0	0	467	
10	0	0	0	0	451	
11	0	0	0	0	438	
12	0	0	0	0	425	
13	0	0	0	0	417	
14	0	0	0	0	410	
15	0	0	0	0	406	
0	0	0	0	0	402	
1	0	0	0	0	399	
2	0	0	0	0	397	
3	0	0	0	0	395	
4	0	0	0	0	393	
5	0	0	0	0	393	
6	0	0	0	0	395	
7	0	0	0	0	395	
8	0	0	0	0	396	
9	0	0	0	0	396	
10	0	0	0	0	397	
11	0	0	0	0	399	
12	0	0	0	0	400	
13	0	0	0	0	401	
14	0	0	0	0	402	
15	0	0	0	0	401	
0	0	0	0	0	400	
1	0	0	0	0	400	
2	0	0	0	0	401	
3	0	0	0	0	400	
4	0	0	0	0	400	
5	0	0	0	0	399	
6	0	0	0	0	400	
7	0	0	0	0	399	
8	0	0	0	0	399	
9	0	0	0	0	401	
10	0	0	0	0	402	
11	0	0	0	0	403	
12	0	0	0	0	404	
13	0	0	0	0	406	
14	0	0	0	0	406	
15	0	0	0	0	406	
0	0	0	0	0	406	
1	0	0	0	0	408	
2	0	0	0	0	409	
3	0	0	0	0	410	
4	0	0	0	0	410	
5	0	0	0	0	411	
6	0	0	0	0	411	
7	0	0	0	0	411	
8	0	0	0	0	412	
9	0	0	0	0	412	
10	0	0	0	0	413	
11	0	0	0	0	415	
12	0	0	0	0	416	
13	0	0	0	0	418	
14	0	0	0	0	420	
15	0	0	0	0	421	
0	0	0	0	0	423	
1	0	0	0	0	424	
2	0	0	0	0	425	
3	0	0	0	0	426	
4	0	0	0	0	428	
5	0	0	0	0	428	
6	0	0	0	0	430	
7	0	0	0	0	430	
8	0	0	0	0	429	
9	0	0	0	0	430	
10	0	0	0	0	431	
11	0	0	0	0	432	
12	0	0	0	0	433	
13	0	0	0	0	435	
14	0	0	0	0	437	
15	0	0	0	0	439	
0	0	0	0	0	439	
1	0	0	0	0	440	
2	0	0	0	0	443	
3	0	0	0	0	445	
4	0	0	0	0	445	
5	0	0	0	0	446	
6	0	0	0	0	447	
7	0	0	0	0	448	
8	0	0	0	0	448	
9	0	0	0	0	448	
10	0	0	0	0	449	
11	0	0	0	0	449	
12	0	0	0	0	449	
13	0	0	0	0	450	
14	0	0	0	0	451	
15	0	0	0	0	451	
0	0	0	0	0	452	
1	0	0	0	0	452	
2	0	0	0	0	454	
3	0	0	0	0	456	
4	0	0	0	0	458	
5	0	0	0	0	460	
6	0	0	0	0	462	
7	0	0	0	0	463	
8	0	0	0	0	464	
9	0	0	0	0	465	
10	0	0	0	0	466	
11	0	0	0	0	467	
12	0	0	0	0	468	
13	0	0	0	0	468	
14	0	0	0	0	467	
15	0	0	0	0	468	
0	0	0	0	0	469	
1	0	0	0	0	469	
2	0	0	0	0	469	
3	0	0	0	0	470	
4	0	0	0	0	471	
5	0	0	0	0	471	
6	0	0	0	0	473	
7	0	0	0	0	472	
8	0	0	0	0	473	
9	0	0	0	0	476	
10	0	0	0	0	478	
11	0	0	0	0	480	
12	0	0	0	0	481	
13	0	0	0	0	482	
14	0	0	0	0	482	
15	0	0	0	0	484	
0	0	0	0	0	485	
1	0	0	0	0	486	
2	0	0	0	0	486	
3	0	0	0	0	487	
4	0	0	0	0	488	
5	0	0	0	0	488	
6	0	0	0	0	489	
7	0	0	0	0	490	
8	0	0	0	0	492	
9	0	0	0	0	493	
10	0	0	0	0	494	
11	0	0	0	0	494	
12	0	0	0	0	495	
13	0	0	0	0	496	
14	0	0	0	0	497	
15	0	0	0	0	499	
0	0	0	0	0	501	
1	0	0	0	0	503	
2	0	0	0	0	505	
3	0	0	0	0	508	
4	0	0	0	0	510	
5	0	0	0	0	511	
6	0	0	0	0	510	
7	0	0	0	0	510	
8	0	0	0	0	509	
9	0	0	0	0	508	
10	0	0	0	0	509	
11	0	0	0	0	509	
12	0	0	0	0	509	
13	0	0	0	0	508	
14	0	0	0	0	508	
15	0	0	0	0	508	
0	0	0	0	0	510	
1	0	0	0	0	511	
2	0	0	0	0	512	
3	0	0	0	0	512	
4	0	0	0	0	511	
5	0	0	0	0	511	
6	0	0	0	0	511	
7	0	0	0	0	512	
8	0	0	0	0	512	
9	0	0	0	0	513	
10	0	0	0	0	514	
11	0	0	0	0	515	
12	0	0	0	0	515	
13	0	0	0	0	514	
14	0	0	0	0	514	
15	0	0	0	0	516	
0	0	0	0	0	517	
1	0	0	0	0	518	
2	0	0	0	0	518	
3	0	0	0	0	517	
4	0	0	0	0	518	
5	0	0	0	0	519	
6	0	0	0	0	520	
7	0	0	0	0	521	
8	0	0	0	0	522	
9	0	0	0	0	524	
10	0	0	0	0	524	
11	0	0	0	0	525	
12	0	0	0	0	527	
13	0	0	0	0	527	
14	0	0	0	0	527	
15	0	0	0	0	527	
0	0	0	0	0	527	
1	0	0	0	0	528	
2	0	0	0	0	528	
3	0	0	0	0	529	
4	0	0	0	0	529	
5	0	0	0	0	528	
6	0	0	0	0	527	
7	0	0	0	0	526	
8	0	0	0	0	526	
9	0	0	0	0	526	
10	0	0	0	0	526	
11	0	0	0	0	526	
12	0	0	0	0	526	
13	0	0	0	0	527	
14	0	0	0	0	527	
15	0	0	0	0	528	
0	0	0	0	0	527	
1	0	0	0	0	526	
2	0	0	0	0	524	
3	0	0	0	0	523	
4	0	0	0	0	521	
5	0	0	0	0	520	
6	0	0	0	0	519	
7	0	0	0	0	519	
8	0	0	0	0	518	
9	0	0	0	0	519	
10	0	0	0	0	520	
11	0	0	0	0	520	
12	0	0	0	0	522	
13	0	0	0	0	523	
14	0	0	0	0	522	
15	0	0	0	0	524	
0	0	0	0	0	524	
1	0	0	0	0	523	
2	0	0	0	0	523	
3	0	0	0	0	522	
4	0	0	0	0	521	
5	0	0	0	0	519	
6	0	0	0	0	516	
7	0	0	0	0	515	
8	0	0	0	0	515	
9	0	0	0	0	515	
10	0	0	0	0	514	
11	0	0	0	0	513	
12	0	0	0	0	512	
13	0	0	0	0	513	
14	0	0	0	0	513	
15	0	0	0	0	513	
0	0	0	0	0	513	
1	0	0	0	0	513	
2	0	0	0	0	513	
3	0	0	0	0	513	
4	0	0	0	0	513	
5	0	0	0	0	513	
6	0	0	0	0	514	
7	0	0	0	0	513	
8	0	0	0	0	513	
9	0	0	0	0	512	
10	0	0	0	0	511	
11	0	0	0	0	510	
12	0	0	0	0	508	
13	0	0	0	0	507	
14	0	0	0	0	506	
15	0	0	0	0	505	
0	0	0	0	0	504	
1	0	0	0	0	502	
2	0	0	0	0	501	
3	0	0	0	0	499	
4	0	0	0	0	499	
5	0	0	0	0	497	
6	0	0	0	0	496	
7	0	0	0	0	495	
8	0	0	0	0	495	
9	0	0	0	0	494	
10	0	0	0	0	493	
11	0	0	0	0	492	
12	0	0	0	0	490	
13	0	0	0	0	489	
14	0	0	0	0	488	
15	0	0	0	0	486	
0	0	0	0	0	484	
1	0	0	0	0	483	
2	0	0	0	0	481	
3	0	0	0	0	480	
4	0	0	0	0	478	
5	0	0	0	0	476	
6	0	0	0	0	475	
7	0	0	0	0	474	
8	0	0	0	0	473	
9	0	0	0	0	472	
10	0	0	0	0	472	
11	0	0	0	0	472	
12	0	0	0	0	472	
13	0	0	0	0	472	
14	0	0	0	0	471	
15	0	0	0	0	471	
0	0	0	0	0	470	
1	0	0	0	0	467	
2	0	0	0	0	465	
3	0	0	0	0	464	
4	0	0	0	0	462	
5	0	0	0	0	461	
6	0	0	0	0	460	
7	0	0	0	0	458	
8	0	0	0	0	456	
9	0	0	0	0	454	
10	0	0	0	0	453	
11	0	0	0	0	452	
12	0	0	0	0	454	
13	0	0	0	0	455	
14	0	0	0	0	455	
15	0	0	0	0	455	
0	0	0	0	0	455	
1	0	0	0	0	456	
2	0	0	0	0	456	
3	0	0	0	0	456	
4	0	0	0	0	457	
5	0	0	0	0	456	
6	0	0	0	0	455	
7	0	0	0	0	454	
8	0	0	0	0	454	
9	0	0	0	0	454	
10	0	0	0	0	454	
11	0	0	0	0	454	
12	0	0	0	0	453	
13	0	0	0	0	452	
14	0	0	0	0	452	
15	0	0	0	0	452	
0	0	0	0	0	451	
1	0	0	0	0	451	
2	0	0	0	0	453	
3	0	0	0	0	456	
4	0	0	0	0	457	
5	0	0	0	0	459	
6	0	0	0	0	459	
7	0	0	0	0	460	
8	0	0	0	0	460	
9	0	0	0	0	461	
10	0	0	0	0	461	
11	0	0	0	0	462	
12	0	0	0	0	462	
13	0	0	0	0	463	
14	0	0	0	0	463	
15	0	0	0	0	464	
0	0	0	0	0	465	
1	0	0	0	0	465	
2	0	0	0	0	465	
3	0	0	0	0	465	
4	0	0	0	0	468	
5	0	0	0	0	470	
6	0	0	0	0	472	
7	0	0	0	0	472	
8	0	0	0	0	474	
9	0	0	0	0	474	
10	0	0	0	0	476	
11	0	0	0	0	477	
12	0	0	0	0	478	
13	0	0	0	0	478	
14	0	0	0	0	479	
15	0	0	0	0	480	
0	0	0	0	0	480	
1	0	0	0	0	480	
2	0	0	0	0	480	
3	0	0	0	0	481	
4	0	0	0	0	483	
5	0	0	0	0	485	
6	0	0	0	0	485	
7	0	0	0	0	486	
8	0	0	0	0	486	
9	0	0	0	0	487	
10	0	0	0	0	488	
11	0	0	0	0	488	
12	0	0	0	0	488	
13	0	0	0	0	489	
14	0	0	0	0	490	
15	0	0	0	0	491	
0	0	0	0	0	491	
1	0	0	0	0	491	
2	0	0	0	0	490	
3	0	0	0	0	490	
4	0	0	0	0	490	
5	0	0	0	0	491	
6	0	0	0	0	491	
7	0	0	0	0	493	
8	0	0	0	0	494	
9	0	0	0	0	495	
10	0	0	0	0	495	
11	0	0	0	0	495	
12	0	0	0	0	496	
13	0	0	0	0	496	
14	0	0	0	0	497	
15	0	0	0	0	498	
0	0	0	0	0	498	
1	0	0	0	0	499	
2	0	0	0	0	499	
3	0	0	0	0	500	
4	0	0	0	0	501	
5	0	0	0	0	500	
6	0	0	0	0	499	
7	0	0	0	0	497	
8	0	0	0	0	497	
9	0	0	0	0	498	
10	0	0	0	0	499	
11	0	0	0	0	499	
12	0	0	0	0	500	
13	0	0	0	0	500	
14	0	0	0	0	502	
15	0	0	0	0	502	
0	0	0	0	0	502	
1	0	0	0	0	503	
2	0	0	0	0	504	
3	0	0	0	0	504	
4	0	0	0	0	504	
5	0	0	0	0	505	
6	0	0	0	0	505	
7	0	0	0	0	505	
8	0	0	0	0	504	
9	0	0	0	0	504	
10	0	0	0	0	503	
11	0	0	0	0	502	
12	0	0	0	0	502	
13	0	0	0	0	502	
14	0	0	0	0	503	
15	0	0	0	0	502	
0	0	0	0	0	502	
1	0	0	0	0	501	
2	0	0	0	0	502	
3	0	0	0	0	503	
4	0	0	0	0	504	
5	0	0	0	0	505	
6	0	0	0	0	507	
7	0	0	0	0	507	
8	0	0	0	0	507	
9	0	0	0	0	507	
10	0	0	0	0	505	
11	0	0	0	0	505	
12	0	0	0	0	505	
13	0	0	0	0	505	
14	0	0	0	0	504	
15	0	0	0	0	505	
0	0	0	0	0	505	
1	0	0	0	0	505	
2	0	0	0	0	504	
3	0	0	0	0	505	
4	0	0	0	0	505	
5	0	0	0	0	506	
6	0	0	0	0	506	
7	0	0	0	0	504	
8	0	0	0	0	504	
9	0	0	0	0	504	
10	0	0	0	0	505	
11	0	0	0	0	506	
12	0	0	0	0	507	
13	0	0	0	0	509	
14	0	0	0	0	509	
15	0	0	0	0	510	
0	0	0	0	0	509	
1	0	0	0	0	509	
2	0	0	0	0	508	
3	0	0	0	0	508	
4	0	0	0	0	508	
5	0	0	0	0	507	
6	0	0	0	0	506	
7	0	0	0	0	504	
8	0	0	0	0	503	
9	0	0	0	0	503	
10	0	0	0	0	503	
11	0	0	0	0	504	
12	0	0	0	0	504	
13	0	0	0	0	506	
14	0	0	0	0	506	
15	0	0	0	0	506	
0	0	0	0	0	505	
1	0	0	0	0	507	
2	0	0	0	0	507	
3	0	0	0	0	507	
4	0	0	0	0	507	
5	0	0	0	0	507	
6	0	0	0	0	506	
7	0	0	0	0	505	
8	0	0	0	0	505	
9	0	0	0	0	505	
10	0	0	0	0	504	
11	0	0	0	0	504	
12	0	0	0	0	504	
13	0	0	0	0	503	
14	0	0	0	0	504	
15	0	0	0	0	507	
0	0	0	0	0	509	
1	0	0	0	0	510	
2	0	0	0	0	510	
3	0	0	0	0	511	
4	0	0	0	0	511	
5	0	0	0	0	511	
6	0	0	0	0	511	
7	0	0	0	0	511	
8	0	0	0	0	511	
9	0	0	0	0	511	
10	0	0	0	0	510	
11	0	0	0	0	508	
12	0	0	0	0	507	
13	0	0	0	0	505	
14	0	0	0	0	504	
15	0	0	0	0	504	
0	0	0	0	0	503	
1	0	0	0	0	503	
2	0	0	0	0	504	
3	0	0	0	0	504	
4	0	0	0	0	505	
5	0	0	0	0	506	
6	0	0	0	0	506	
7	0	0	0	0	507	
8	0	0	0	0	507	
9	0	0	0	0	507	
10	0	0	0	0	508	
11	0	0	0	0	507	
12	0	0	0	0	508	
13	0	0	0	0	507	
14	0	0	0	0	506	
15	0	0	0	0	506	
0	0	0	0	0	505	
1	0	0	0	0	504	
2	0	0	0	0	504	
3	0	0	0	0	505	
4	0	0	0	0	506	
5	0	0	0	0	507	
6	0	0	0	0	508	
7	0	0	0	0	508	
8	0	0	0	0	508	
9	0	0	0	0	508	
10	0	0	0	0	508	
11	0	0	0	0	508	
12	0	0	0	0	508	
13	0	0	0	0	508	
14	0	0	0	0	509	
15	0	0	0	0	509	
0	0	0	0	0	510	
1	0	0	0	0	509	
2	0	0	0	0	508	
3	0	0	0	0	507	
4	0	0	0	0	507	
5	0	0	0	0	507	
6	0	0	0	0	507	
7	0	0	0	0	507	
8	0	0	0	0	507	
9	0	0	0	0	507	
10	0	0	0	0	507	
11	0	0	0	0	507	
12	0	0	0	0	506	
13	0	0	0	0	507	
14	0	0	0	0	507	
15	0	0	0	0	507	
0	0	0	0	0	507	
1	0	0	0	0	508	
2	0	0	0	0	509	
3	0	0	0	0	511	
4	0	0	0	0	512	
5	0	0	0	0	511	
6	0	0	0	0	510	
7	0	0	0	0	508	
8	0	0	0	0	508	
9	0	0	0	0	509	
10	0	0	0	0	510	
11	0	0	0	0	510	
12	0	0	0	0	510	
13	0	0	0	0	510	
14	0	0	0	0	511	
15	0	0	0	0	511	
0	0	0	0	0	512	
1	0	0	0	0	513	
2	0	0	0	0	513	
3	0	0	0	0	514	
4	0	0	0	0	514	
5	0	0	0	0	515	
6	0	0	0	0	516	
7	0	0	0	0	516	
8	0	0	0	0	517	
9	0	0	0	0	516	
10	0	0	0	0	517	
11	0	0	0	0	518	
12	0	0	0	0	518	
13	0	0	0	0	518	
14	0	0	0	0	518	
15	0	0	0	0	517	
0	0	0	0	0	518	
1	0	0	0	0	517	
2	0	0	0	0	517	
3	0	0	0	0	517	
4	0	0	0	0	517	
5	0	0	0	0	517	
6	0	0	0	0	517	
7	0	0	0	0	518	
8	0	0	0	0	519	
9	0	0	0	0	519	
10	0	0	0	0	519	
11	0	0	0	0	519	
12	0	0	0	0	519	
13	0	0	0	0	519	
14	0	0	0	0	518	
15	0	0	0	0	517	
0	0	0	0	0	516	
1	0	0	0	0	515	
2	0	0	0	0	514	
3	0	0	0	0	512	
4	0	0	0	0	512	
5	0	0	0	0	512	
6	0	0	0	0	512	
7	0	0	0	0	512	
8	0	0	0	0	513	
9	0	0	0	0	515	
10	0	0	0	0	516	
11	0	0	0	0	516	
12	0	0	0	0	516	
13	0	0	0	0	516	
14	0	0	0	0	516	
15	0	0	0	0	516	
0	0	0	0	0	516	
1	0	0	0	0	514	
2	0	0	0	0	513	
3	0	0	0	0	513	
4	0	0	0	0	513	
5	0	0	0	0	514	
6	0	0	0	0	513	
7	0	0	0	0	513	
8	0	0	0	0	512	
9	0	0	0	0	512	
10	0	0	0	0	513	
11	0	0	0	0	513	
12	0	0	0	0	513	
13	0	0	0	0	513	
14	0	0	0	0	513	
15	0	0	0	0	513	
0	0	0	0	0	514	
1	0	0	0	0	514	
2	0	0	0	0	515	
3	0	0	0	0	516	
4	0	0	0	0	516	
5	0	0	0	0	516	
6	0	0	0	0	515	
7	0	0	0	0	514	
8	0	0	0	0	513	
9	0	0	0	0	512	
10	0	0	0	0	511	
11	0	0	0	0	512	
12	0	0	0	0	512	
13	0	0	0	0	512	
14	0	0	0	0	513	
15	0	0	0	0	513	
0	0	0	0	0	515	
1	0	0	0	0	515	
2	0	0	0	0	515	
3	0	0	0	0	515	
4	0	0	0	0	515	
5	0	0	0	0	517	
6	0	0	0	0	518	
7	0	0	0	0	518	
8	0	0	0	0	517	
9	0	0	0	0	517	
10	0	0	0	0	516	
11	0	0	0	0	516	
12	0	0	0	0	515	
13	0	0	0	0	515	
14	0	0	0	0	514	
15	0	0	0	0	514	
0	0	0	0	0	514	
1	0	0	0	0	514	
2	0	0	0	0	515	
3	0	0	0	0	515	
4	0	0	0	0	515	
5	0	0	0	0	516	
6	0	0	0	0	517	
7	0	0	0	0	518	
8	0	0	0	0	518	
9	0	0	0	0	517	
10	0	0	0	0	517	
11	0	0	0	0	516	
12	0	0	0	0	515	
13	0	0	0	0	515	
14	0	0	0	0	515	
15	0	0	0	0	514	
0	0	0	0	0	513	
1	0	0	0	0	513	
2	0	0	0	0	514	
3	0	0	0	0	515	
4	0	0	0	0	517	
5	0	0	0	0	518	
6	0	0	0	0	518	
7	0	0	0	0	519	
8	0	0	0	0	519	
9	0	0	0	0	519	
10	0	0	0	0	519	
11	0	0	0	0	519	
12	0	0	0	0	520	
13	0	0	0	0	521	
14	0	0	0	0	522	
15	0	0	0	0	523	
0	0	0	0	0	525	
1	0	0	0	0	524	
2	0	0	0	0	524	
3	0	0	0	0	523	
4	0	0	0	0	521	
5	0	0	0	0	521	
6	0	0	0	0	520	
7	0	0	0	0	520	
8	0	0	0	0	520	
9	0	0	0	0	520	
10	0	0	0	0	521	
11	0	0	0	0	521	
12	0	0	0	0	521	
13	0	0	0	0	523	
14	0	0	0	0	523	
15	0	0	0	0	523	
0	0	0	0	0	523	
1	0	0	0	0	523	
2	0	0	0	0	524	
3	0	0	0	0	524	
4	0	0	0	0	523	
5	0	0	0	0	522	
6	0	0	0	0	521	
7	0	0	0	0	520	
8	0	0	0	0	519	
9	0	0	0	0	519	
10	0	0	0	0	518	
11	0	0	0	0	516	
12	0	0	0	0	515	
13	0	0	0	0	516	
14	0	0	0	0	516	
15	0	0	0	0	516	
0	0	0	0	0	518	
1	0	0	0	0	518	
2	0	0	0	0	519	
3	0	0	0	0	519	
4	0	0	0	0	519	
5	0	0	0	0	518	
6	0	0	0	0	518	
7	0	0	0	0	519	
8	0	0	0	0	520	
9	0	0	0	0	520	
10	0	0	0	0	520	
11	0	0	0	0	521	
12	0	0	0	0	520	
13	0	0	0	0	522	
14	0	0	0	0	524	
15	0	0	0	0	524	
0	0	0	0	0	524	
1	0	0	0	0	522	
2	0	0	0	0	522	
3	0	0	0	0	521	
4	0	0	0	0	523	
5	0	0	0	0	522	
6	0	0	0	0	521	
7	0	0	0	0	520	
8	0	0	0	0	519	
9	0	0	0	0	519	
10	0	0	0	0	519	
11	0	0	0	0	519	
12	0	0	0	0	520	
13	0	0	0	0	520	
14	0	0	0	0	521	
15	0	0	0	0	520	
0	0	0	0	0	519	
1	0	0	0	0	519	
2	0	0	0	0	518	
3	0	0	0	0	518	
4	0	0	0	0	518	
5	0	0	0	0	517	
6	0	0	0	0	517	
7	0	0	0	0	518	
8	0	0	0	0	519	
9	0	0	0	0	519	
10	0	0	0	0	520	
11	0	0	0	0	523	
12	0	0	0	0	524	
13	0	0	0	0	525	
14	0	0	0	0	525	
15	0	0	0	0	526	
0	0	0	0	0	527	
1	0	0	0	0	527	
2	0	0	0	0	526	
3	0	0	0	0	524	
4	0	0	0	0	523	
5	0	0	0	0	523	
6	0	0	0	0	521	
7	0	0	0	0	521	
8	0	0	0	0	520	
9	0	0	0	0	520	
10	0	0	0	0	521	
11	0	0	0	0	521	
12	0	0	0	0	523	
13	0	0	0	0	524	
14	0	0	0	0	526	
15	0	0	0	0	527	
0	0	0	0	0	528	
1	0	0	0	0	528	
2	0	0	0	0	529	
3	0	0	0	0	531	
4	0	0	0	0	532	
5	0	0	0	0	532	
6	0	0	0	0	533	
7	0	0	0	0	534	
8	0	0	0	0	535	
9	0	0	0	0	536	
10	0	0	0	0	536	
11	0	0	0	0	537	
12	0	0	0	0	538	
13	0	0	0	0	538	
14	0	0	0	0	538	
15	0	0	0	0	536	
0	0	0	0	0	534	
1	0	0	0	0	531	
2	0	0	0	0	529	
3	0	0	0	0	527	
4	0	0	0	0	527	
5	0	0	0	0	527	
6	0	0	0	0	526	
7	0	0	0	0	527	
8	0	0	0	0	527	
9	0	0	0	0	528	
10	0	0	0	0	530	
11	0	0	0	0	531	
12	0	0	0	0	531	
13	0	0	0	0	532	
14	0	0	0	0	533	
15	0	0	0	0	535	
0	0	0	0	0	536	
1	0	0	0	0	537	
2	0	0	0	0	537	
3	0	0	0	0	538	
4	0	0	0	0	539	
5	0	0	0	0	540	
6	0	0	0	0	539	
7	0	0	0	0	537	
8	0	0	0	0	536	
9	0	0	0	0	532	
10	0	0	0	0	531	
11	0	0	0	0	529	
12	0	0	0	0	526	
13	0	0	0	0	524	
14	0	0	0	0	521	
15	0	0	0	0	518	
0	0	0	0	0	515	
1	0	0	0	0	514	
2	0	0	0	0	512	
3	0	0	0	0	512	
4	0	0	0	0	512	
5	0	0	0	0	513	
6	0	0	0	0	512	
7	0	0	0	0	511	
8	0	0	0	0	512	
9	0	0	0	0	512	
10	0	0	0	0	513	
11	0	0	0	0	515	
12	0	0	0	0	515	
13	0	0	0	0	515	
14	0	0	0	0	515	
15	0	0	0	0	516	
0	0	0	0	0	517	
1	0	0	0	0	516	
2	0	0	0	0	516	
3	0	0	0	0	515	
4	0	0	0	0	513	
5	0	0	0	0	512	
6	0	0	0	0	511	
7	0	0	0	0	510	
8	0	0	0	0	508	
9	0	0	0	0	507	
10	0	0	0	0	504	
11	0	0	0	0	503	
12	0	0	0	0	502	
13	0	0	0	0	502	
14	0	0	0	0	503	
15	0	0	0	0	503	
0	0	0	0	0	504	
1	0	0	0	0	505	
2	0	0	0	0	508	
3	0	0	0	0	510	
4	0	0	0	0	511	
5	0	0	0	0	510	
6	0	0	0	0	510	
7	0	0	0	0	510	
8	0	0	0	0	510	
9	0	0	0	0	510	
10	0	0	0	0	510	
11	0	0	0	0	510	
12	0	0	0	0	511	
13	0	0	0	0	511	
14	0	0	0	0	511	
15	0	0	0	0	512	
0	0	0	0	0	515	
1	0	0	0	0	516	
2	0	0	0	0	518	
3	0	0	0	0	518	
4	0	0	0	0	518	
5	0	0	0	0	517	
6	0	0	0	0	516	
7	0	0	0	0	516	
8	0	0	0	0	515	
9	0	0	0	0	514	
10	0	0	0	0	513	
11	0	0	0	0	511	
12	0	0	0	0	510	
13	0	0	0	0	509	
14	0	0	0	0	508	
15	0	0	0	0	507	
0	0	0	0	0	505	
1	0	0	0	0	505	
2	0	0	0	0	505	
3	0	0	0	0	505	
4	0	0	0	0	508	
5	0	0	0	0	510	
6	0	0	0	0	512	
7	0	0	0	0	516	
8	0	0	0	0	523	
9	0	0	0	0	530	
10	0	0	0	0	539	
11	0	0	0	0	550	
12	0	0	0	0	564	
13	0	0	0	0	579	
14	0	0	0	0	593	
15	0	0	0	0	608	
0	0	0	0	0	623	
1	0	0	0	0	638	
2	0	0	0	0	653	
3	0	0	0	0	670	
4	0	0	0	0	689	
5	0	0	0	0	709	
6	0	0	0	0	731	
7	0	0	0	0	754	
8	0	0	0	0	778	
9	0	0	0	0	804	
10	0	0	0	0	830	
11	0	0	0	0	855	
12	0	0	0	0	881	
13	0	0	0	0	910	
14	0	0	0	0	938	
15	0	0	0	0	966	
0	0	0	0	0	993	
1	0	0	0	0	1017	
2	0	0	0	0	1022	
3	0	0	0	0	1022	
4	0	0	0	0	1022	
5	0	0	0	0	1022	
6	0	0	0	0	1022	
7	0	0	0	0	1022	
8	0	0	0	0	1022	
9	0	0	0	0	1022	
10	0	0	0	0	1008	
11	0	0	0	0	980	
12	0	0	0	0	950	
13	0	0	0	0	913	
14	0	0	0	0	870	
15	0	0	0	0	820	
0	0	0	0	0	765	
1	0	0	0	0	708	
2	0	0	0	0	655	
3	0	0	0	0	608	
4	0	0	0	0	567	
5	0	0	0	0	529	
6	0	0	0	0	496	
7	0	0	0	0	470	
8	0	0	0	0	450	
9	0	0	0	0	438	
10	0	0	0	0	427	
11	0	0	0	0	418	
12	0	0	0	0	410	
13	0	0	0	0	403	
14	0	0	0	0	399	
15	0	0	0	0	397	
0	0	0	0	0	395	
1	0	0	0	0	395	
2	0	0	0	0	394	
3	0	0	0	0	393	
4	0	0	0	0	392	
5	0	0	0	0	392	
6	0	0	0	0	392	
7	0	0	0	0	393	
8	0	0	0	0	395	
9	0	0	0	0	395	
10	0	0	0	0	396	
11	0	0	0	0	397	
12	0	0	0	0	399	
13	0	0	0	0	400	
14	0	0	0	0	399	
15	0	0	0	0	399	
0	0	0	0	0	398	
1	0	0	0	0	398	
2	0	0	0	0	398	
3	0	0	0	0	400	
4	0	0	0	0	400	
5	0	0	0	0	401	
6	0	0	0	0	403	
7	0	0	0	0	403	
8	0	0	0	0	404	
9	0	0	0	0	404	
10	0	0	0	0	404	
11	0	0	0	0	404	
12	0	0	0	0	403	
13	0	0	0	0	402	
14	0	0	0	0	402	
15	0	0	0	0	402	
0	0	0	0	0	402	
1	0	0	0	0	402	
2	0	0	0	0	403	
3	0	0	0	0	405	
4	0	0	0	0	406	
5	0	0	0	0	407	
6	0	0	0	0	408	
7	0	0	0	0	409	
8	0	0	0	0	411	
9	0	0	0	0	412	
10	0	0	0	0	412	
11	0	0	0	0	412	
12	0	0	0	0	413	
13	0	0	0	0	414	
14	0	0	0	0	416	
15	0	0	0	0	417	
0	0	0	0	0	419	
1	0	0	0	0	420	
2	0	0	0	0	421	
3	0	0	0	0	422	
4	0	0	0	0	422	
5	0	0	0	0	423	
6	0	0	0	0	425	
7	0	0	0	0	425	
8	0	0	0	0	426	
9	0	0	0	0	428	
10	0	0	0	0	429	
11	0	0	0	0	430	
12	0	0	0	0	432	
13	0	0	0	0	434	
14	0	0	0	0	437	
15	0	0	0	0	439	
0	0	0	0	0	440	
1	0	0	0	0	442	
2	0	0	0	0	443	
3	0	0	0	0	444	
4	0	0	0	0	446	
5	0	0	0	0	446	
6	0	0	0	0	446	
7	0	0	0	0	447	
8	0	0	0	0	447	
9	0	0	0	0	447	
10	0	0	0	0	448	
11	0	0	0	0	448	
12	0	0	0	0	449	
13	0	0	0	0	450	
14	0	0	0	0	452	
15	0	0	0	0	455	
0	0	0	0	0	457	
1	0	0	0	0	458	
2	0	0	0	0	459	
3	0	0	0	0	460	
4	0	0	0	0	462	
5	0	0	0	0	463	
6	0	0	0	0	464	
7	0	0	0	0	464	
8	0	0	0	0	465	
9	0	0	0	0	465	
10	0	0	0	0	466	
11	0	0	0	0	467	
12	0	0	0	0	468	
13	0	0	0	0	470	
14	0	0	0	0	471	
15	0	0	0	0	472	
0	0	0	0	0	472	
1	0	0	0	0	473	
2	0	0	0	0	474	
3	0	0	0	0	475	
4	0	0	0	0	476	
5	0	0	0	0	478	
6	0	0	0	0	480	
7	0	0	0	0	482	
8	0	0	0	0	483	
9	0	0	0	0	485	
10	0	0	0	0	485	
11	0	0	0	0	486	
12	0	0	0	0	488	
13	0	0	0	0	488	
14	0	0	0	0	489	
15	0	0	0	0	489	
0	0	0	0	0	490	
1	0	0	0	0	491	
2	0	0	0	0	492	
3	0	0	0	0	493	
4	0	0	0	0	493	
5	0	0	0	0	494	
6	0	0	0	0	495	
7	0	0	0	0	496	
8	0	0	0	0	497	
9	0	0	0	0	498	
10	0	0	0	0	500	
11	0	0	0	0	502	
12	0	0	0	0	503	
13	0	0	0	0	503	
14	0	0	0	0	504	
15	0	0	0	0	504	
0	0	0	0	0	505	
1	0	0	0	0	506	
2	0	0	0	0	506	
3	0	0	0	0	506	
4	0	0	0	0	505	
5	0	0	0	0	506	
6	0	0	0	0	506	
7	0	0	0	0	506	
8	0	0	0	0	507	
9	0	0	0	0	507	
10	0	0	0	0	507	
11	0	0	0	0	509	
12	0	0	0	0	510	
13	0	0	0	0	511	
14	0	0	0	0	512	
15	0	0	0	0	513	
0	0	0	0	0	515	
1	0	0	0	0	515	
2	0	0	0	0	516	
3	0	0	0	0	517	
4	0	0	0	0	519	
5	0	0	0	0	518	
6	0	0	0	0	517	
7	0	0	0	0	517	
8	0	0	0	0	517	
9	0	0	0	0	517	
10	0	0	0	0	517	
11	0	0	0	0	517	
12	0	0	0	0	515	
13	0	0	0	0	515	
14	0	0	0	0	515	
15	0	0	0	0	514	
0	0	0	0	0	514	
1	0	0	0	0	514	
2	0	0	0	0	516	
3	0	0	0	0	517	
4	0	0	0	0	518	
5	0	0	0	0	519	
6	0	0	0	0	521	
7	0	0	0	0	523	
8	0	0	0	0	524	
9	0	0	0	0	524	
10	0	0	0	0	524	
11	0	0	0	0	524	
12	0	0	0	0	524	
13	0	0	0	0	526	
14	0	0	0	0	526	
15	0	0	0	0	525	
0	0	0	0	0	525	
1	0	0	0	0	524	
2	0	0	0	0	524	
3	0	0	0	0	525	
4	0	0	0	0	524	
5	0	0	0	0	524	
6	0	0	0	0	525	
7	0	0	0	0	526	
8	0	0	0	0	526	
9	0	0	0	0	527	
10	0	0	0	0	526	
11	0	0	0	0	526	
12	0	0	0	0	526	
13	0	0	0	0	525	
14	0	0	0	0	525	
15	0	0	0	0	526	
0	0	0	0	0	525	
1	0	0	0	0	526	
2	0	0	0	0	525	
3	0	0	0	0	524	
4	0	0	0	0	524	
5	0	0	0	0	524	
6	0	0	0	0	524	
7	0	0	0	0	523	
8	0	0	0	0	524	
9	0	0	0	0	524	
10	0	0	0	0	524	
11	0	0	0	0	524	
12	0	0	0	0	524	
13	0	0	0	0	524	
14	0	0	0	0	525	
15	0	0	0	0	526	
0	0	0	0	0	527	
1	0	0	0	0	526	
2	0	0	0	0	524	
3	0	0	0	0	523	
4	0	0	0	0	523	
5	0	0	0	0	523	
6	0	0	0	0	523	
7	0	0	0	0	523	
8	0	0	0	0	523	
9	0	0	0	0	523	
10	0	0	0	0	523	
11	0	0	0	0	523	
12	0	0	0	0	522	
13	0	0	0	0	523	
14	0	0	0	0	524	
15	0	0	0	0	525	
0	0	0	0	0	524	
1	0	0	0	0	524	
2	0	0	0	0	523	
3	0	0	0	0	523	
4	0	0	0	0	523	
5	0	0	0	0	523	
6	0	0	0	0	521	
7	0	0	0	0	519	
8	0	0	0	0	519	
9	0	0	0	0	519	
10	0	0	0	0	519	
11	0	0	0	0	519	
12	0	0	0	0	516	
13	0	0	0	0	515	
14	0	0	0	0	514	
15	0	0	0	0	513	
0	0	0	0	0	512	
1	0	0	0	0	512	
2	0	0	0	0	511	
3	0	0	0	0	510	
4	0	0	0	0	508	
5	0	0	0	0	508	
6	0	0	0	0	507	
7	0	0	0	0	505	
8	0	0	0	0	504	
9	0	0	0	0	499	
10	0	0	0	0	497	
11	0	0	0	0	495	
12	0	0	0	0	494	
13	0	0	0	0	493	
14	0	0	0	0	491	
15	0	0	0	0	488	
0	0	0	0	0	486	
1	0	0	0	0	483	
2	0	0	0	0	482	
3	0	0	0	0	481	
4	0	0	0	0	481	
5	0	0	0	0	483	
6	0	0	0	0	483	
7	0	0	0	0	484	
8	0	0	0	0	483	
9	0	0	0	0	483	
10	0	0	0	0	481	
11	0	0	0	0	480	
12	0	0	0	0	479	
13	0	0	0	0	477	
14	0	0	0	0	476	
15	0	0	0	0	473	
0	0	0	0	0	472	
1	0	0	0	0	469	
2	0	0	0	0	467	
3	0	0	0	0	466	
4	0	0	0	0	464	
5	0	0	0	0	462	
6	0	0	0	0	461	
7	0	0	0	0	460	
8	0	0	0	0	460	
9	0	0	0	0	459	
10	0	0	0	0	460	
11	0	0	0	0	460	
12	0	0	0	0	461	
13	0	0	0	0	461	
14	0	0	0	0	462	
15	0	0	0	0	462	
0	0	0	0	0	461	
1	0	0	0	0	460	
2	0	0	0	0	459	
3	0	0	0	0	457	
4	0	0	0	0	457	
5	0	0	0	0	456	
6	0	0	0	0	456	
7	0	0	0	0	455	
8	0	0	0	0	454	
9	0	0	0	0	455	
10	0	0	0	0	455	
11	0	0	0	0	457	
12	0	0	0	0	458	
13	0	0	0	0	459	
14	0	0	0	0	460	
15	0	0	0	0	461	
0	0	0	0	0	463	
1	0	0	0	0	463	
2	0	0	0	0	463	
3	0	0	0	0	463	
4	0	0	0	0	462	
5	0	0	0	0	461	
6	0	0	0	0	461	
7	0	0	0	0	461	
8	0	0	0	0	461	
9	0	0	0	0	461	
10	0	0	0	0	461	
11	0	0	0	0	460	
12	0	0	0	0	460	
13	0	0	0	0	462	
14	0	0	0	0	463	
15	0	0	0	0	463	
0	0	0	0	0	465	
1	0	0	0	0	468	
2	0	0	0	0	470	
3	0	0	0	0	472	
4	0	0	0	0	473	
5	0	0	0	0	475	
6	0	0	0	0	476	
7	0	0	0	0	476	
8	0	0	0	0	477	
9	0	0	0	0	476	
10	0	0	0	0	475	
11	0	0	0	0	476	
12	0	0	0	0	476	
13	0	0	0	0	476	
14	0	0	0	0	477	
15	0	0	0	0	478	
0	0	0	0	0	478	
1	0	0	0	0	480	
2	0	0	0	0	480	
3	0	0	0	0	481	
4	0	0	0	0	482	
5	0	0	0	0	482	
6	0	0	0	0	482	
7	0	0	0	0	483	
8	0	0	0	0	485	
9	0	0	0	0	486	
10	0	0	0	0	487	
11	0	0	0	0	488	
12	0	0	0	0	490	
13	0	0	0	0	489	
14	0	0	0	0	489	
15	0	0	0	0	488	
0	0	0	0	0	487	
1	0	0	0	0	487	
2	0	0	0	0	487	
3	0	0	0	0	487	
4	0	0	0	0	487	
5	0	0	0	0	488	
6	0	0	0	0	490	
7	0	0	0	0	490	
8	0	0	0	0	491	
9	0	0	0	0	492	
10	0	0	0	0	493	
11	0	0	0	0	493	
12	0	0	0	0	495	
13	0	0	0	0	495	
14	0	0	0	0	496	
15	0	0	0	0	496	
0	0	0	0	0	496	
1	0	0	0	0	495	
2	0	0	0	0	496	
3	0	0	0	0	496	
4	0	0	0	0	496	
5	0	0	0	0	497	
6	0	0	0	0	496	
7	0	0	0	0	495	
8	0	0	0	0	495	
9	0	0	0	0	495	
10	0	0	0	0	497	
11	0	0	0	0	498	
12	0	0	0	0	499	
13	0	0	0	0	501	
14	0	0	0	0	502	
15	0	0	0	0	502	
0	0	0	0	0	502	
1	0	0	0	0	502	
2	0	0	0	0	503	
3	0	0	0	0	503	
4	0	0	0	0	503	
5	0	0	0	0	503	
6	0	0	0	0	503	
7	0	0	0	0	502	
8	0	0	0	0	502	
9	0	0	0	0	502	
10	0	0	0	0	501	
11	0	0	0	0	501	
12	0	0	0	0	502	
13	0	0	0	0	503	
14	0	0	0	0	504	
15	0	0	0	0	504	
0	0	0	0	0	505	
1	0	0	0	0	506	
2	0	0	0	0	507	
3	0	0	0	0	507	
4	0	0	0	0	507	
5	0	0	0	0	507	
6	0	0	0	0	507	
7	0	0	0	0	505	
8	0	0	0	0	505	
9	0	0	0	0	504	
10	0	0	0	0	503	
11	0	0	0	0	502	
12	0	0	0	0	501	
13	0	0	0	0	501	
14	0	0	0	0	502	
15	0	0	0	0	503	
0	0	0	0	0	503	
1	0	0	0	0	504	
2	0	0	0	0	503	
3	0	0	0	0	503	
4	0	0	0	0	504	
5	0	0	0	0	505	
6	0	0	0	0	506	
7	0	0	0	0	507	
8	0	0	0	0	507	
9	0	0	0	0	507	
10	0	0	0	0	508	
11	0	0	0	0	509	
12	0	0	0	0	510	
13	0	0	0	0	511	
14	0	0	0	0	510	
15	0	0	0	0	510	
0	0	0	0	0	509	
1	0	0	0	0	509	
2	0	0	0	0	508	
3	0	0	0	0	507	
4	0	0	0	0	507	
5	0	0	0	0	508	
6	0	0	0	0	508	
7	0	0	0	0	508	
8	0	0	0	0	508	
9	0	0	0	0	509	
10	0	0	0	0	510	
11	0	0	0	0	510	
12	0	0	0	0	510	
13	0	0	0	0	510	
14	0	0	0	0	511	
15	0	0	0	0	511	
0	0	0	0	0	510	
1	0	0	0	0	508	
2	0	0	0	0	507	
3	0	0	0	0	507	
4	0	0	0	0	506	
5	0	0	0	0	506	
6	0	0	0	0	506	
7	0	0	0	0	505	
8	0	0	0	0	506	
9	0	0	0	0	506	
10	0	0	0	0	506	
11	0	0	0	0	507	
12	0	0	0	0	506	
13	0	0	0	0	507	
14	0	0	0	0	507	
15	0	0	0	0	507	
0	0	0	0	0	506	
1	0	0	0	0	506	
2	0	0	0	0	506	
3	0	0	0	0	507	
4	0	0	0	0	508	
5	0	0	0	0	508	
6	0	0	0	0	508	
7	0	0	0	0	507	
8	0	0	0	0	506	
9	0	0	0	0	506	
10	0	0	0	0	505	
11	0	0	0	0	504	
12	0	0	0	0	505	
13	0	0	0	0	506	
14	0	0	0	0	507	
15	0	0	0	0	507	
0	0	0	0	0	507	
1	0	0	0	0	506	
2	0	0	0	0	506	
3	0	0	0	0	507	
4	0	0	0	0	507	
5	0	0	0	0	508	
6	0	0	0	0	508	
7	0	0	0	0	509	
8	0	0	0	0	510	
9	0	0	0	0	509	
10	0	0	0	0	509	
11	0	0	0	0	508	
12	0	0	0	0	508	
13	0	0	0	0	508	
14	0	0	0	0	508	
15	0	0	0	0	507	
0	0	0	0	0	507	
1	0	0	0	0	506	
2	0	0	0	0	507	
3	0	0	0	0	508	
4	0	0	0	0	509	
5	0	0	0	0	509	
6	0	0	0	0	509	
7	0	0	0	0	509	
8	0	0	0	0	510	
9	0	0	0	0	509	
10	0	0	0	0	510	
11	0	0	0	0	511	
12	0	0	0	0	511	
13	0	0	0	0	510	
14	0	0	0	0	509	
15	0	0	0	0	509	
0	0	0	0	0	510	
1	0	0	0	0	510	
2	0	0	0	0	511	
3	0	0	0	0	512	
4	0	0	0	0	513	
5	0	0	0	0	514	
6	0	0	0	0	514	
7	0	0	0	0	513	
8	0	0	0	0	514	
9	0	0	0	0	514	
10	0	0	0	0	515	
11	0	0	0	0	516	
12	0	0	0	0	517	
13	0	0	0	0	518	
14	0	0	0	0	519	
15	0	0	0	0	519	
0	0	0	0	0	519	
1	0	0	0	0	517	
2	0	0	0	0	516	
3	0	0	0	0	515	
4	0	0	0	0	515	
5	0	0	0	0	514	
6	0	0	0	0	514	
7	0	0	0	0	514	
8	0	0	0	0	513	
9	0	0	0	0	513	
10	0	0	0	0	513	
11	0	0	0	0	513	
12	0	0	0	0	512	
13	0	0	0	0	513	
14	0	0	0	0	513	
15	0	0	0	0	513	
0	0	0	0	0	513	
1	0	0	0	0	514	
2	0	0	0	0	515	
3	0	0	0	0	515	
4	0	0	0	0	516	
5	0	0	0	0	516	
6	0	0	0	0	516	
7	0	0	0	0	516	
8	0	0	0	0	515	
9	0	0	0	0	515	
10	0	0	0	0	513	
11	0	0	0	0	513	
12	0	0	0	0	513	
13	0	0	0	0	513	
14	0	0	0	0	513	
15	0	0	0	0	515	
0	0	0	0	0	516	
1	0	0	0	0	516	
2	0	0	0	0	516	
3	0	0	0	0	518	
4	0	0	0	0	518	
5	0	0	0	0	517	
6	0	0	0	0	517	
7	0	0	0	0	517	
8	0	0	0	0	517	
9	0	0	0	0	516	
10	0	0	0	0	515	
11	0	0	0	0	513	
12	0	0	0	0	513	
13	0	0	0	0	513	
14	0	0	0	0	512	
15	0	0	0	0	511	
0	0	0	0	0	510	
1	0	0	0	0	509	
2	0	0	0	0	509	
3	0	0	0	0	509	
4	0	0	0	0	509	
5	0	0	0	0	510	
6	0	0	0	0	511	
7	0	0	0	0	512	
8	0	0	0	0	513	
9	0	0	0	0	514	
10	0	0	0	0	513	
11	0	0	0	0	513	
12	0	0	0	0	513	
13	0	0	0	0	512	
14	0	0	0	0	511	
15	0	0	0	0	511	
0	0	0	0	0	511	
1	0	0	0	0	512	
2	0	0	0	0	512	
3	0	0	0	0	512	
4	0	0	0	0	512	
5	0	0	0	0	512	
6	0	0	0	0	512	
7	0	0	0	0	512	
8	0	0	0	0	513	
9	0	0	0	0	515	
10	0	0	0	0	515	
11	0	0	0	0	516	
12	0	0	0	0	515	
13	0	0	0	0	516	
14	0	0	0	0	517	
15	0	0	0	0	516	
0	0	0	0	0	517	
1	0	0	0	0	516	
2	0	0	0	0	515	
3	0	0	0	0	515	
4	0	0	0	0	514	
5	0	0	0	0	514	
6	0	0	0	0	514	
7	0	0	0	0	514	
8	0	0	0	0	513	
9	0	0	0	0	513	
10	0	0	0	0	515	
11	0	0	0	0	515	
12	0	0	0	0	515	
13	0	0	0	0	515	
14	0	0	0	0	516	
15	0	0	0	0	517	
0	0	0	0	0	517	
1	0	0	0	0	518	
2	0	0	0	0	518	
3	0	0	0	0	518	
4	0	0	0	0	518	
5	0	0	0	0	517	
6	0	0	0	0	516	
7	0	0	0	0	515	
8	0	0	0	0	514	
9	0	0	0	0	514	
10	0	0	0	0	513	
11	0	0	0	0	514	
12	0	0	0	0	516	
13	0	0	0	0	517	
14	0	0	0	0	517	
15	0	0	0	0	518	
0	0	0	0	0	519	
1	0	0	0	0	519	
2	0	0	0	0	518	
3	0	0	0	0	519	
4	0	0	0	0	518	
5	0	0	0	0	519	
6	0	0	0	0	519	
7	0	0	0	0	518	
8	0	0	0	0	518	
9	0	0	0	0	516	
10	0	0	0	0	515	
11	0	0	0	0	515	
12	0	0	0	0	515	
13	0	0	0	0	515	
14	0	0	0	0	517	
15	0	0	0	0	516	
0	0	0	0	0	516	
1	0	0	0	0	517	
2	0	0	0	0	518	
3	0	0	0	0	518	
4	0	0	0	0	518	
5	0	0	0	0	519	
6	0	0	0	0	519	
7	0	0	0	0	519	
8	0	0	0	0	519	
9	0	0	0	0	518	
10	0	0	0	0	518	
11	0	0	0	0	518	
12	0	0	0	0	518	
13	0	0	0	0	518	
14	0	0	0	0	517	
15	0	0	0	0	516	
0	0	0	0	0	515	
1	0	0	0	0	515	
2	0	0	0	0	515	
3	0	0	0	0	515	
4	0	0	0	0	516	
5	0	0	0	0	516	
6	0	0	0	0	516	
7	0	0	0	0	515	
8	0	0	0	0	515	
9	0	0	0	0	515	
10	0	0	0	0	515	
11	0	0	0	0	516	
12	0	0	0	0	517	
13	0	0	0	0	517	
14	0	0	0	0	516	
15	0	0	0	0	515	
0	0	0	0	0	516	
1	0	0	0	0	516	
2	0	0	0	0	516	
3	0	0	0	0	515	
4	0	0	0	0	514	
5	0	0	0	0	514	
6	0	0	0	0	515	
7	0	0	0	0	515	
8	0	0	0	0	514	
9	0	0	0	0	515	
10	0	0	0	0	516	
11	0	0	0	0	517	
12	0	0	0	0	516	
13	0	0	0	0	518	
14	0	0	0	0	519	
15	0	0	0	0	519	
0	0	0	0	0	519	
1	0	0	0	0	518	
2	0	0	0	0	518	
3	0	0	0	0	519	
4	0	0	0	0	519	
5	0	0	0	0	518	
6	0	0	0	0	517	
7	0	0	0	0	516	
8	0	0	0	0	516	
9	0	0	0	0	515	
10	0	0	0	0	515	
11	0	0	0	0	515	
12	0	0	0	0	515	
13	0	0	0	0	515	
14	0	0	0	0	515	
15	0	0	0	0	516	
0	0	0	0	0	517	
1	0	0	0	0	519	
2	0	0	0	0	518	
3	0	0	0	0	518	
4	0	0	0	0	518	
5	0	0	0	0	517	
6	0	0	0	0	516	
7	0	0	0	0	515	
8	0	0	0	0	515	
9	0	0	0	0	514	
10	0	0	0	0	513	
11	0	0	0	0	513	
12	0	0	0	0	513	
13	0	0	0	0	512	
14	0	0	0	0	512	
15	0	0	0	0	513	
0	0	0	0	0	514	
1	0	0	0	0	515	
2	0	0	0	0	517	
3	0	0	0	0	519	
4	0	0	0	0	521	
5	0	0	0	0	522	
6	0	0	0	0	522	
7	0	0	0	0	523	
8	0	0	0	0	524	
9	0	0	0	0	526	
10	0	0	0	0	527	
11	0	0	0	0	527	
12	0	0	0	0	526	
13	0	0	0	0	525	
14	0	0	0	0	524	
15	0	0	0	0	523	
0	0	0	0	0	522	
1	0	0	0	0	522	
2	0	0	0	0	521	
3	0	0	0	0	521	
4	0	0	0	0	521	
5	0	0	0	0	520	
6	0	0	0	0	520	
7	0	0	0	0	520	
8	0	0	0	0	520	
9	0	0	0	0	520	
10	0	0	0	0	520	
11	0	0	0	0	521	
12	0	0	0	0	522	
13	0	0	0	0	523	
14	0	0	0	0	524	
15	0	0	0	0	525	
0	0	0	0	0	526	
1	0	0	0	0	527	
2	0	0	0	0	528	
3	0	0	0	0	529	
4	0	0	0	0	531	
5	0	0	0	0	531	
6	0	0	0	0	532	
7	0	0	0	0	535	
8	0	0	0	0	536	
9	0	0	0	0	536	
10	0	0	0	0	535	
11	0	0	0	0	533	
12	0	0	0	0	532	
13	0	0	0	0	529	
14	0	0	0	0	526	
15	0	0	0	0	524	
0	0	0	0	0	523	
1	0	0	0	0	521	
2	0	0	0	0	521	
3	0	0	0	0	521	
4	0	0	0	0	521	
5	0	0	0	0	521	
6	0	0	0	0	523	
7	0	0	0	0	527	
8	0	0	0	0	529	
9	0	0	0	0	531	
10	0	0	0	0	532	
11	0	0	0	0	534	
12	0	0	0	0	536	
13	0	0	0	0	538	
14	0	0	0	0	539	
15	0	0	0	0	540	
0	0	0	0	0	541	
1	0	0	0	0	541	
2	0	0	0	0	540	
3	0	0	0	0	539	
4	0	0	0	0	537	
5	0	0	0	0	535	
6	0	0	0	0	533	
7	0	0	0	0	531	
8	0	0	0	0	530	
9	0	0	0	0	528	
10	0	0	0	0	526	
11	0	0	0	0	523	
12	0	0	0	0	522	
13	0	0	0	0	520	
14	0	0	0	0	519	
15	0	0	0	0	518	
0	0	0	0	0	517	
1	0	0	0	0	516	
2	0	0	0	0	518	
3	0	0	0	0	518	
4	0	0	0	0	518	
5	0	0	0	0	518	
6	0	0	0	0	518	
7	0	0	0	0	518	
8	0	0	0	0	518	
9	0	0	0	0	518	
10	0	0	0	0	518	
11	0	0	0	0	518	
12	0	0	0	0	518	
13	0	0	0	0	518	
14	0	0	0	0	518	
15	0	0	0	0	516	
0	0	0	0	0	515	
1	0	0	0	0	515	
2	0	0	0	0	515	
3	0	0	0	0	514	
4	0	0	0	0	513	
5	0	0	0	0	513	
6	0	0	0	0	513	
7	0	0	0	0	512	
8	0	0	0	0	512	
9	0	0	0	0	512	
10	0	0	0	0	512	
11	0	0	0	0	512	
12	0	0	0	0	512	
13	0	0	0	0	513	
14	0	0	0	0	512	
15	0	0	0	0	511	
0	0	0	0	0	511	
1	0	0	0	0	510	
2	0	0	0	0	510	
3	0	0	0	0	509	
4	0	0	0	0	509	
5	0	0	0	0	508	
6	0	0	0	0	509	
7	0	0	0	0	508	
8	0	0	0	0	508	
9	0	0	0	0	508	
10	0	0	0	0	509	
11	0	0	0	0	510	
12	0	0	0	0	510	
13	0	0	0	0	512	
14	0	0	0	0	512	
15	0	0	0	0	512	
0	0	0	0	0	513	
1	0	0	0	0	513	
2	0	0	0	0	513	
3	0	0	0	0	512	
4	0	0	0	0	512	
5	0	0	0	0	511	
6	0	0	0	0	512	
7	0	0	0	0	512	
8	0	0	0	0	513	
9	0	0	0	0	512	
10	0	0	0	0	512	
11	0	0	0	0	510	
12	0	0	0	0	509	
13	0	0	0	0	508	
14	0	0	0	0	507	
15	0	0	0	0	507	
0	0	0	0	0	507	
1	0	0	0	0	508	
2	0	0	0	0	509	
3	0	0	0	0	512	
4	0	0	0	0	515	
5	0	0	0	0	521	
6	0	0	0	0	529	
7	0	0	0	0	537	
8	0	0	0	0	547	
9	0	0	0	0	559	
10	0	0	0	0	572	
11	0	0	0	0	586	
12	0	0	0	0	600	
13	0	0	0	0	615	
14	0	0	0	0	631	
15	0	0	0	0	646	
0	0	0	0	0	664	
1	0	0	0	0	684	
2	0	0	0	0	705	
3	0	0	0	0	727	
4	0	0	0	0	751	
5	0	0	0	0	775	
6	0	0	0	0	799	
7	0	0	0	0	824	
8	0	0	0	0	849	
9	0	0	0	0	876	
10	0	0	0	0	904	
11	0	0	0	0	933	
12	0	0	0	0	961	
13	0	0	0	0	989	
14	0	0	0	0	1016	
15	0	0	0	0	1022	
0	0	0	0	0	1022	
1	0	0	0	0	1022	
2	0	0	0	0	1022	
3	0	0	0	0	1022	
4	0	0	0	0	1022	
5	0	0	0	0	1022	
6	0	0	0	0	1022	
7	0	0	0	0	1013	
8	0	0	0	0	984	
9	0	0	0	0	952	
10	0	0	0	0	915	
11	0	0	0	0	872	
12	0	0	0	0	822	
13	0	0	0	0	768	
14	0	0	0	0	711	
15	0	0	0	0	658	
0	0	0	0	0	610	
1	0	0	0	0	568	
2	0	0	0	0	529	
3	0	0	0	0	498	
4	0	0	0	0	473	
5	0	0	0	0	453	
6	0	0	0	0	439	
7	0	0	0	0	428	
8	0	0	0	0	419	
9	0	0	0	0	409	
10	0	0	0	0	401	
11	0	0	0	0	397	
12	0	0	0	0	394	
13	0	0	0	0	392	
14	0	0	0	0	390	
15	0	0	0	0	391	
0	0	0	0	0	391	
1	0	0	0	0	391	
2	0	0	0	0	392	
3	0	0	0	0	393	
4	0	0	0	0	394	
5	0	0	0	0	394	
6	0	0	0	0	395	
7	0	0	0	0	396	
8	0	0	0	0	398	
9	0	0	0	0	399	
10	0	0	0	0	402	
11	0	0	0	0	403	
12	0	0	0	0	405	
13	0	0	0	0	405	
14	0	0	0	0	405	
15	0	0	0	0	406	
0	0	0	0	0	407	
1	0	0	0	0	408	
2	0	0	0	0	408	
3	0	0	0	0	409	
4	0	0	0	0	408	
5	0	0	0	0	408	
6	0	0	0	0	407	
7	0	0	0	0	405	
8	0	0	0	0	403	
9	0	0	0	0	401	
10	0	0	0	0	399	
11	0	0	0	0	399	
12	0	0	0	0	400	
13	0	0	0	0	401	
14	0	0	0	0	401	
15	0	0	0	0	400	
0	0	0	0	0	401	
1	0	0	0	0	403	
2	0	0	0	0	405	
3	0	0	0	0	406	
4	0	0	0	0	407	
5	0	0	0	0	409	
6	0	0	0	0	412	
7	0	0	0	0	414	
8	0	0	0	0	415	
9	0	0	0	0	416	
10	0	0	0	0	417	
11	0	0	0	0	418	
12	0	0	0	0	418	
13	0	0	0	0	418	
14	0	0	0	0	418	
15	0	0	0	0	419	
0	0	0	0	0	420	
1	0	0	0	0	421	
2	0	0	0	0	422	
3	0	0	0	0	423	
4	0	0	0	0	424	
5	0	0	0	0	425	
6	0	0	0	0	427	
7	0	0	0	0	428	
8	0	0	0	0	431	
9	0	0	0	0	432	
10	0	0	0	0	434	
11	0	0	0	0	436	
12	0	0	0	0	438	
13	0	0	0	0	439	
14	0	0	0	0	439	
15	0	0	0	0	440	
0	0	0	0	0	440	
1	0	0	0	0	440	
2	0	0	0	0	441	
3	0	0	0	0	442	
4	0	0	0	0	443	
5	0	0	0	0	445	
6	0	0	0	0	447	
7	0	0	0	0	448	
8	0	0	0	0	451	
9	0	0	0	0	452	
10	0	0	0	0	454	
11	0	0	0	0	455	
12	0	0	0	0	457	
13	0	0	0	0	458	
14	0	0	0	0	458	
15	0	0	0	0	460	
0	0	0	0	0	460	
1	0	0	0	0	463	
2	0	0	0	0	464	
3	0	0	0	0	465	
4	0	0	0	0	466	
5	0	0	0	0	467	
6	0	0	0	0	467	
7	0	0	0	0	467	
8	0	0	0	0	467	
9	0	0	0	0	468	
10	0	0	0	0	470	
11	0	0	0	0	472	
12	0	0	0	0	472	
13	0	0	0	0	473	
14	0	0	0	0	475	
15	0	0	0	0	477	
0	0	0	0	0	479	
1	0	0	0	0	480	
2	0	0	0	0	481	
3	0	0	0	0	482	
4	0	0	0	0	484	
5	0	0	0	0	486	
6	0	0	0	0	487	
7	0	0	0	0	488	
8	0	0	0	0	489	
9	0	0	0	0	489	
10	0	0	0	0	488	
11	0	0	0	0	489	
12	0	0	0	0	491	
13	0	0	0	0	491	
14	0	0	0	0	491	
15	0	0	0	0	491	
0	0	0	0	0	491	
1	0	0	0	0	493	
2	0	0	0	0	495	
3	0	0	0	0	495	
4	0	0	0	0	497	
5	0	0	0	0	498	
6	0	0	0	0	498	
7	0	0	0	0	499	
8	0	0	0	0	499	
9	0	0	0	0	500	
10	0	0	0	0	500	
11	0	0	0	0	499	
12	0	0	0	0	499	
13	0	0	0	0	499	
14	0	0	0	0	500	
15	0	0	0	0	500	
0	0	0	0	0	502	
1	0	0	0	0	504	
2	0	0	0	0	505	
3	0	0	0	0	506	
4	0	0	0	0	507	
5	0	0	0	0	507	
6	0	0	0	0	507	
7	0	0	0	0	509	
8	0	0	0	0	510	
9	0	0	0	0	511	
10	0	0	0	0	512	
11	0	0	0	0	513	
12	0	0	0	0	513	
13	0	0	0	0	513	
14	0	0	0	0	513	
15	0	0	0	0	513	
0	0	0	0	0	513	
1	0	0	0	0	513	
2	0	0	0	0	513	
3	0	0	0	0	512	
4	0	0	0	0	513	
5	0	0	0	0	513	
6	0	0	0	0	514	
7	0	0	0	0	516	
8	0	0	0	0	517	
9	0	0	0	0	518	
10	0	0	0	0	519	
11	0	0	0	0	520	
12	0	0	0	0	521	
13	0	0	0	0	523	
14	0	0	0	0	523	
15	0	0	0	0	524	
0	0	0	0	0	524	
1	0	0	0	0	524	
2	0	0	0	0	525	
3	0	0	0	0	525	
4	0	0	0	0	524	
5	0	0	0	0	525	
6	0	0	0	0	526	
7	0	0	0	0	526	
8	0	0	0	0	527	
9	0	0	0	0	527	
10	0	0	0	0	527	
11	0	0	0	0	528	
12	0	0	0	0	528	
13	0	0	0	0	528	
14	0	0	0	0	529	
15	0	0	0	0	530	
0	0	0	0	0	531	
1	0	0	0	0	532	
2	0	0	0	0	533	
3	0	0	0	0	534	
4	0	0	0	0	534	
5	0	0	0	0	534	
6	0	0	0	0	533	
7	0	0	0	0	533	
8	0	0	0	0	532	
9	0	0	0	0	532	
10	0	0	0	0	531	
11	0	0	0	0	531	
12	0	0	0	0	531	
13	0	0	0	0	531	
14	0	0	0	0	530	
15	0	0	0	0	528	
0	0	0	0	0	527	
1	0	0	0	0	527	
2	0	0	0	0	528	
3	0	0	0	0	528	
4	0	0	0	0	529	
5	0	0	0	0	529	
6	0	0	0	0	529	
7	0	0	0	0	528	
8	0	0	0	0	528	
9	0	0	0	0	528	
10	0	0	0	0	528	
11	0	0	0	0	528	
12	0	0	0	0	528	
13	0	0	0	0	527	
14	0	0	0	0	528	
15	0	0	0	0	526	
0	0	0	0	0	525	
1	0	0	0	0	526	
2	0	0	0	0	526	
3	0	0	0	0	527	
4	0	0	0	0	528	
5	0	0	0	0	529	
6	0	0	0	0	531	
7	0	0	0	0	531	
8	0	0	0	0	531	
9	0	0	0	0	531	
10	0	0	0	0	530	
11	0	0	0	0	530	
12	0	0	0	0	531	
13	0	0	0	0	530	
14	0	0	0	0	528	
15	0	0	0	0	527	
0	0	0	0	0	525	
1	0	0	0	0	523	
2	0	0	0	0	522	
3	0	0	0	0	521	
4	0	0	0	0	520	
5	0	0	0	0	519	
6	0	0	0	0	520	
7	0	0	0	0	520	
8	0	0	0	0	519	
9	0	0	0	0	519	
10	0	0	0	0	519	
11	0	0	0	0	519	
12	0	0	0	0	518	
13	0	0	0	0	518	
14	0	0	0	0	517	
15	0	0	0	0	516	
0	0	0	0	0	515	
1	0	0	0	0	514	
2	0	0	0	0	513	
3	0	0	0	0	510	
4	0	0	0	0	508	
5	0	0	0	0	506	
6	0	0	0	0	504	
7	0	0	0	0	501	
8	0	0	0	0	499	
9	0	0	0	0	497	
10	0	0	0	0	495	
11	0	0	0	0	493	
12	0	0	0	0	493	
13	0	0	0	0	492	
14	0	0	0	0	492	
15	0	0	0	0	491	
0	0	0	0	0	489	
1	0	0	0	0	488	
2	0	0	0	0	486	
3	0	0	0	0	484	
4	0	0	0	0	482	
5	0	0	0	0	483	
6	0	0	0	0	481	
7	0	0	0	0	479	
8	0	0	0	0	479	
9	0	0	0	0	476	
10	0	0	0	0	476	
11	0	0	0	0	475	
12	0	0	0	0	472	
13	0	0	0	0	471	
14	0	0	0	0	470	
15	0	0	0	0	468	
0	0	0	0	0	467	
1	0	0	0	0	466	
2	0	0	0	0	465	
3	0	0	0	0	465	
4	0	0	0	0	465	
5	0	0	0	0	465	
6	0	0	0	0	464	
7	0	0	0	0	463	
8	0	0	0	0	461	
9	0	0	0	0	461	
10	0	0	0	0	460	
11	0	0	0	0	460	
12	0	0	0	0	459	
13	0	0	0	0	458	
14	0	0	0	0	457	
15	0	0	0	0	457	
0	0	0	0	0	457	
1	0	0	0	0	457	
2	0	0	0	0	456	
3	0	0	0	0	455	
4	0	0	0	0	455	
5	0	0	0	0	455	
6	0	0	0	0	455	
7	0	0	0	0	455	
8	0	0	0	0	456	
9	0	0	0	0	457	
10	0	0	0	0	459	
11	0	0	0	0	460	
12	0	0	0	0	460	
13	0	0	0	0	460	
14	0	0	0	0	460	
15	0	0	0	0	460	
0	0	0	0	0	460	
1	0	0	0	0	460	
2	0	0	0	0	459	
3	0	0	0	0	459	
4	0	0	0	0	459	
5	0	0	0	0	460	
6	0	0	0	0	460	
7	0	0	0	0	461	
8	0	0	0	0	462	
9	0	0	0	0	462	
10	0	0	0	0	463	
11	0	0	0	0	464	
12	0	0	0	0	464	
13	0	0	0	0	465	
14	0	0	0	0	467	
15	0	0	0	0	469	
0	0	0	0	0	471	
1	0	0	0	0	472	
2	0	0	0	0	473	
3	0	0	0	0	474	
4	0	0	0	0	475	
5	0	0	0	0	475	
6	0	0	0	0	475	
7	0	0	0	0	475	
8	0	0	0	0	475	
9	0	0	0	0	475	
10	0	0	0	0	475	
11	0	0	0	0	475	
12	0	0	0	0	475	
13	0	0	0	0	474	
14	0	0	0	0	476	
15	0	0	0	0	477	
0	0	0	0	0	479	
1	0	0	0	0	480	
2	0	0	0	0	480	
3	0	0	0	0	481	
4	0	0	0	0	481	
5	0	0	0	0	481	
6	0	0	0	0	482	
7	0	0	0	0	483	
8	0	0	0	0	483	
9	0	0	0	0	483	
10	0	0	0	0	483	
11	0	0	0	0	483	
12	0	0	0	0	483	
13	0	0	0	0	483	
14	0	0	0	0	484	
15	0	0	0	0	486	
0	0	0	0	0	487	
1	0	0	0	0	488	
2	0	0	0	0	489	
3	0	0	0	0	490	
4	0	0	0	0	491	
5	0	0	0	0	492	
6	0	0	0	0	493	
7	0	0	0	0	494	
8	0	0	0	0	496	
9	0	0	0	0	496	
10	0	0	0	0	497	
11	0	0	0	0	497	
12	0	0	0	0	498	
13	0	0	0	0	498	
14	0	0	0	0	498	
15	0	0	0	0	498	
0	0	0	0	0	498	
1	0	0	0	0	498	
2	0	0	0	0	499	
3	0	0	0	0	499	
4	0	0	0	0	499	
5	0	0	0	0	498	
6	0	0	0	0	498	
7	0	0	0	0	498	
8	0	0	0	0	499	
9	0	0	0	0	499	
10	0	0	0	0	500	
11	0	0	0	0	501	
12	0	0	0	0	502	
13	0	0	0	0	502	
14	0	0	0	0	502	
15	0	0	0	0	503	
0	0	0	0	0	503	
1	0	0	0	0	502	
2	0	0	0	0	501	
3	0	0	0	0	501	
4	0	0	0	0	502	
5	0	0	0	0	502	
6	0	0	0	0	501	
7	0	0	0	0	500	
8	0	0	0	0	500	
9	0	0	0	0	500	
10	0	0	0	0	501	
11	0	0	0	0	500	
12	0	0	0	0	501	
13	0	0	0	0	502	
14	0	0	0	0	502	
15	0	0	0	0	502	
0	0	0	0	0	504	
1	0	0	0	0	504	
2	0	0	0	0	505	
3	0	0	0	0	505	
4	0	0	0	0	505	
5	0	0	0	0	505	
6	0	0	0	0	503	
7	0	0	0	0	502	
8	0	0	0	0	502	
9	0	0	0	0	501	
10	0	0	0	0	502	
11	0	0	0	0	502	
12	0	0	0	0	502	
13	0	0	0	0	503	
14	0	0	0	0	504	
15	0	0	0	0	505	
0	0	0	0	0	507	
1	0	0	0	0	508	
2	0	0	0	0	508	
3	0	0	0	0	507	
4	0	0	0	0	507	
5	0	0	0	0	507	
6	0	0	0	0	508	
7	0	0	0	0	508	
8	0	0	0	0	507	
9	0	0	0	0	505	
10	0	0	0	0	504	
11	0	0	0	0	504	
12	0	0	0	0	504	
13	0	0	0	0	504	
14	0	0	0	0	504	
15	0	0	0	0	503	
0	0	0	0	0	503	
1	0	0	0	0	504	
2	0	0	0	0	505	
3	0	0	0	0	505	
4	0	0	0	0	506	
5	0	0	0	0	506	
6	0	0	0	0	505	
7	0	0	0	0	505	
8	0	0	0	0	504	
9	0	0	0	0	504	
10	0	0	0	0	504	
11	0	0	0	0	504	
12	0	0	0	0	503	
13	0	0	0	0	501	
14	0	0	0	0	500	
15	0	0	0	0	499	
0	0	0	0	0	498	
1	0	0	0	0	497	
2	0	0	0	0	498	
3	0	0	0	0	499	
4	0	0	0	0	501	
5	0	0	0	0	502	
6	0	0	0	0	504	
7	0	0	0	0	505	
8	0	0	0	0	505	
9	0	0	0	0	505	
10	0	0	0	0	504	
11	0	0	0	0	505	
12	0	0	0	0	507	
13	0	0	0	0	507	
14	0	0	0	0	507	
15	0	0	0	0	506	
0	0	0	0	0	505	
1	0	0	0	0	504	
2	0	0	0	0	503	
3	0	0	0	0	503	
4	0	0	0	0	503	
5	0	0	0	0	503	
6	0	0	0	0	503	
7	0	0	0	0	502	
8	0	0	0	0	502	
9	0	0	0	0	502	
10	0	0	0	0	503	
11	0	0	0	0	503	
12	0	0	0	0	504	
13	0	0	0	0	504	
14	0	0	0	0	506	
15	0	0	0	0	508	
0	0	0	0	0	509	
1	0	0	0	0	510	
2	0	0	0	0	509	
3	0	0	0	0	508	
4	0	0	0	0	508	
5	0	0	0	0	507	
6	0	0	0	0	506	
7	0	0	0	0	504	
8	0	0	0	0	504	
9	0	0	0	0	503	
10	0	0	0	0	503	
11	0	0	0	0	503	
12	0	0	0	0	504	
13	0	0	0	0	504	
14	0	0	0	0	504	
15	0	0	0	0	504	
0	0	0	0	0	505	
1	0	0	0	0	507	
2	0	0	0	0	506	
3	0	0	0	0	507	
4	0	0	0	0	507	
5	0	0	0	0	506	
6	0	0	0	0	505	
7	0	0	0	0	504	
8	0	0	0	0	503	
9	0	0	0	0	502	
10	0	0	0	0	501	
11	0	0	0	0	501	
12	0	0	0	0	500	
13	0	0	0	0	499	
14	0	0	0	0	498	
15	0	0	0	0	499	
0	0	0	0	0	498	
1	0	0	0	0	498	
2	0	0	0	0	498	
3	0	0	0	0	498	
4	0	0	0	0	499	
5	0	0	0	0	502	
6	0	0	0	0	503	
7	0	0	0	0	504	
8	0	0	0	0	504	
9	0	0	0	0	505	
10	0	0	0	0	506	
11	0	0	0	0	506	
12	0	0	0	0	506	
13	0	0	0	0	505	
14	0	0	0	0	505	
15	0	0	0	0	505	
0	0	0	0	0	506	
1	0	0	0	0	508	
2	0	0	0	0	508	
3	0	0	0	0	508	
4	0	0	0	0	508	
5	0	0	0	0	509	
6	0	0	0	0	509	
7	0	0	0	0	508	
8	0	0	0	0	508	
9	0	0	0	0	508	
10	0	0	0	0	508	
11	0	0	0	0	508	
12	0	0	0	0	507	
13	0	0	0	0	508	
14	0	0	0	0	508	
15	0	0	0	0	508	
0	0	0	0	0	508	
1	0	0	0	0	508	
2	0	0	0	0	507	
3	0	0	0	0	507	
4	0	0	0	0	506	
5	0	0	0	0	507	
6	0	0	0	0	508	
7	0	0	0	0	510	
8	0	0	0	0	511	
9	0	0	0	0	512	
10	0	0	0	0	512	
11	0	0	0	0	512	
12	0	0	0	0	513	
13	0	0	0	0	513	
14	0	0	0	0	514	
15	0	0	0	0	515	
0	0	0	0	0	516	
1	0	0	0	0	516	
2	0	0	0	0	515	
3	0	0	0	0	514	
4	0	0	0	0	513	
5	0	0	0	0	513	
6	0	0	0	0	512	
7	0	0	0	0	512	
8	0	0	0	0	511	
9	0	0	0	0	510	
10	0	0	0	0	510	
11	0	0	0	0	509	
12	0	0	0	0	510	
13	0	0	0	0	510	
14	0	0	0	0	511	
15	0	0	0	0	511	
0	0	0	0	0	512	
1	0	0	0	0	511	
2	0	0	0	0	512	
3	0	0	0	0	513	
4	0	0	0	0	514	
5	0	0	0	0	514	
6	0	0	0	0	513	
7	0	0	0	0	513	
8	0	0	0	0	513	
9	0	0	0	0	512	
10	0	0	0	0	512	
11	0	0	0	0	512	
12	0	0	0	0	512	
13	0	0	0	0	512	
14	0	0	0	0	511	
15	0	0	0	0	510	
0	0	0	0	0	510	
1	0	0	0	0	510	
2	0	0	0	0	512	
3	0	0	0	0	513	
4	0	0	0	0	514	
5	0	0	0	0	514	
6	0	0	0	0	515	
7	0	0	0	0	515	
8	0	0	0	0	515	
9	0	0	0	0	517	
10	0	0	0	0	517	
11	0	0	0	0	517	
12	0	0	0	0	517	
13	0	0	0	0	517	
14	0	0	0	0	515	
15	0	0	0	0	515	
0	0	0	0	0	515	
1	0	0	0	0	515	
2	0	0	0	0	514	
3	0	0	0	0	514	
4	0	0	0	0	514	
5	0	0	0	0	515	
6	0	0	0	0	515	
7	0	0	0	0	516	
8	0	0	0	0	518	
9	0	0	0	0	519	
10	0	0	0	0	519	
11	0	0	0	0	519	
12	0	0	0	0	520	
13	0	0	0	0	520	
14	0	0	0	0	519	
15	0	0	0	0	519	
0	0	0	0	0	519	
1	0	0	0	0	518	
2	0	0	0	0	519	
3	0	0	0	0	519	
4	0	0	0	0	519	
5	0	0	0	0	518	
6	0	0	0	0	517	
7	0	0	0	0	516	
8	0	0	0	0	516	
9	0	0	0	0	515	
10	0	0	0	0	515	
11	0	0	0	0	516	
12	0	0	0	0	517	
13	0	0	0	0	518	
14	0	0	0	0	519	
15	0	0	0	0	520	
0	0	0	0	0	521	
1	0	0	0	0	523	
2	0	0	0	0	524	
3	0	0	0	0	524	
4	0	0	0	0	525	
5	0	0	0	0	525	
6	0	0	0	0	525	
7	0	0	0	0	525	
8	0	0	0	0	524	
9	0	0	0	0	524	
10	0	0	0	0	524	
11	0	0	0	0	523	
12	0	0	0	0	523	
13	0	0	0	0	523	
14	0	0	0	0	524	
15	0	0	0	0	524	
0	0	0	0	0	525	
1	0	0	0	0	525	
2	0	0	0	0	524	
3	0	0	0	0	523	
4	0	0	0	0	522	
5	0	0	0	0	522	
6	0	0	0	0	522	
7	0	0	0	0	522	
8	0	0	0	0	521	
9	0	0	0	0	521	
10	0	0	0	0	520	
11	0	0	0	0	519	
12	0	0	0	0	519	
13	0	0	0	0	520	
14	0	0	0	0	519	
15	0	0	0	0	519	
0	0	0	0	0	518	
1	0	0	0	0	518	
2	0	0	0	0	519	
3	0	0	0	0	519	
4	0	0	0	0	519	
5	0	0	0	0	519	
6	0	0	0	0	519	
7	0	0	0	0	519	
8	0	0	0	0	519	
9	0	0	0	0	519	
10	0	0	0	0	519	
11	0	0	0	0	519	
12	0	0	0	0	519	
13	0	0	0	0	519	
14	0	0	0	0	518	
15	0	0	0	0	517	
0	0	0	0	0	516	
1	0	0	0	0	515	
2	0	0	0	0	515	
3	0	0	0	0	515	
4	0	0	0	0	515	
5	0	0	0	0	513	
6	0	0	0	0	514	
7	0	0	0	0	515	
8	0	0	0	0	515	
9	0	0	0	0	515	
10	0	0	0	0	516	
11	0	0	0	0	516	
12	0	0	0	0	515	
13	0	0	0	0	513	
14	0	0	0	0	514	
15	0	0	0	0	515	
0	0	0	0	0	516	
1	0	0	0	0	516	
2	0	0	0	0	516	
3	0	0	0	0	516	
4	0	0	0	0	515	
5	0	0	0	0	514	
6	0	0	0	0	513	
7	0	0	0	0	514	
8	0	0	0	0	515	
9	0	0	0	0	515	
10	0	0	0	0	515	
11	0	0	0	0	515	
12	0	0	0	0	516	
13	0	0	0	0	518	
14	0	0	0	0	519	
15	0	0	0	0	520	
0	0	0	0	0	521	
1	0	0	0	0	521	
2	0	0	0	0	522	
3	0	0	0	0	523	
4	0	0	0	0	523	
5	0	0	0	0	523	
6	0	0	0	0	522	
7	0	0	0	0	520	
8	0	0	0	0	519	
9	0	0	0	0	519	
10	0	0	0	0	517	
11	0	0	0	0	516	
12	0	0	0	0	517	
13	0	0	0	0	519	
14	0	0	0	0	522	
15	0	0	0	0	524	
0	0	0	0	0	526	
1	0	0	0	0	527	
2	0	0	0	0	527	
3	0	0	0	0	529	
4	0	0	0	0	529	
5	0	0	0	0	529	
6	0	0	0	0	531	
7	0	0	0	0	532	
8	0	0	0	0	533	
9	0	0	0	0	534	
10	0	0	0	0	534	
11	0	0	0	0	533	
12	0	0	0	0	533	
13	0	0	0	0	532	
14	0	0	0	0	531	
15	0	0	0	0	529	
0	0	0	0	0	528	
1	0	0	0	0	527	
2	0	0	0	0	526	
3	0	0	0	0	524	
4	0	0	0	0	524	
5	0	0	0	0	523	
6	0	0	0	0	521	
7	0	0	0	0	521	
8	0	0	0	0	523	
9	0	0	0	0	524	
10	0	0	0	0	526	
11	0	0	0	0	528	
12	0	0	0	0	529	
13	0	0	0	0	529	
14	0	0	0	0	529	
15	0	0	0	0	530	
0	0	0	0	0	530	
1	0	0	0	0	531	
2	0	0	0	0	531	
3	0	0	0	0	531	
4	0	0	0	0	531	
5	0	0	0	0	532	
6	0	0	0	0	533	
7	0	0	0	0	534	
8	0	0	0	0	534	
9	0	0	0	0	534	
10	0	0	0	0	531	
11	0	0	0	0	529	
12	0	0	0	0	529	
13	0	0	0	0	527	
14	0	0	0	0	526	
15	0	0	0	0	524	
0	0	0	0	0	523	
1	0	0	0	0	521	
2	0	0	0	0	519	
3	0	0	0	0	518	
4	0	0	0	0	516	
5	0	0	0	0	515	
6	0	0	0	0	514	
7	0	0	0	0	512	
8	0	0	0	0	512	
9	0	0	0	0	512	
10	0	0	0	0	512	
11	0	0	0	0	512	
12	0	0	0	0	512	
13	0	0	0	0	513	
14	0	0	0	0	514	
15	0	0	0	0	514	
0	0	0	0	0	513	
1	0	0	0	0	514	
2	0	0	0	0	515	
3	0	0	0	0	515	
4	0	0	0	0	514	
5	0	0	0	0	512	
6	0	0	0	0	511	
7	0	0	0	0	509	
8	0	0	0	0	508	
9	0	0	0	0	508	
10	0	0	0	0	507	
11	0	0	0	0	506	
12	0	0	0	0	506	
13	0	0	0	0	507	
14	0	0	0	0	508	
15	0	0	0	0	507	
0	0	0	0	0	507	
1	0	0	0	0	508	
2	0	0	0	0	508	
3	0	0	0	0	508	
4	0	0	0	0	510	
5	0	0	0	0	511	
6	0	0	0	0	512	
7	0	0	0	0	512	
8	0	0	0	0	512	
9	0	0	0	0	511	
10	0	0	0	0	510	
11	0	0	0	0	509	
12	0	0	0	0	508	
13	0	0	0	0	509	
14	0	0	0	0	509	
15	0	0	0	0	508	
0	0	0	0	0	508	
1	0	0	0	0	509	
2	0	0	0	0	509	
3	0	0	0	0	510	
4	0	0	0	0	511	
5	0	0	0	0	511	
6	0	0	0	0	511	
7	0	0	0	0	510	
8	0	0	0	0	510	
9	0	0	0	0	511	
10	0	0	0	0	511	
11	0	0	0	0	511	
12	0	0	0	0	510	
13	0	0	0	0	510	
14	0	0	0	0	509	
15	0	0	0	0	508	
0	0	0	0	0	507	
1	0	0	0	0	507	
2	0	0	0	0	508	
3	0	0	0	0	508	
4	0	0	0	0	509	
5	0	0	0	0	511	
6	0	0	0	0	512	
7	0	0	0	0	514	
8	0	0	0	0	517	
9	0	0	0	0	522	
10	0	0	0	0	529	
11	0	0	0	0	537	
12	0	0	0	0	546	
13	0	0	0	0	557	
14	0	0	0	0	569	
15	0	0	0	0	583	
0	0	0	0	0	596	
1	0	0	0	0	610	
2	0	0	0	0	624	
3	0	0	0	0	639	
4	0	0	0	0	656	
5	0	0	0	0	675	
6	0	0	0	0	696	
7	0	0	0	0	718	
8	0	0	0	0	741	
9	0	0	0	0	763	
10	0	0	0	0	785	
11	0	0	0	0	809	
12	0	0	0	0	835	
13	0	0	0	0	864	
14	0	0	0	0	891	
15	0	0	0	0	918	
0	0	0	0	0	944	
1	0	0	0	0	969	
2	0	0	0	0	994	
3	0	0	0	0	1011	
4	0	0	0	0	1021	
5	0	0	0	0	1022	
6	0	0	0	0	1022	
7	0	0	0	0	1022	
8	0	0	0	0	1022	
9	0	0	0	0	1020	
10	0	0	0	0	1009	
11	0	0	0	0	993	
12	0	0	0	0	973	
13	0	0	0	0	946	
14	0	0	0	0	911	
15	0	0	0	0	868	
0	0	0	0	0	818	
1	0	0	0	0	763	
2	0	0	0	0	708	
3	0	0	0	0	656	
4	0	0	0	0	608	
5	0	0	0	0	565	
6	0	0	0	0	529	
7	0	0	0	0	498	
8	0	0	0	0	473	
9	0	0	0	0	453	
10	0	0	0	0	438	
11	0	0	0	0	428	
12	0	0	0	0	419	
13	0	0	0	0	413	
14	0	0	0	0	406	
15	0	0	0	0	399	
0	0	0	0	0	393	
1	0	0	0	0	390	
2	0	0	0	0	387	
3	0	0	0	0	385	
4	0	0	0	0	385	
5	0	0	0	0	385	
6	0	0	0	0	386	
7	0	0	0	0	387	
8	0	0	0	0	389	
9	0	0	0	0	390	
10	0	0	0	0	391	
11	0	0	0	0	394	
12	0	0	0	0	397	
13	0	0	0	0	399	
14	0	0	0	0	402	
15	0	0	0	0	406	
0	0	0	0	0	409	
1	0	0	0	0	412	
2	0	0	0	0	413	
3	0	0	0	0	414	
4	0	0	0	0	416	
5	0	0	0	0	418	
6	0	0	0	0	419	
7	0	0	0	0	419	
8	0	0	0	0	419	
9	0	0	0	0	418	
10	0	0	0	0	417	
11	0	0	0	0	418	
12	0	0	0	0	418	
13	0	0	0	0	418	
14	0	0	0	0	418	
15	0	0	0	0	418	
0	0	0	0	0	418	
1	0	0	0	0	417	
2	0	0	0	0	417	
3	0	0	0	0	417	
4	0	0	0	0	417	
5	0	0	0	0	417	
6	0	0	0	0	418	
7	0	0	0	0	420	
8	0	0	0	0	422	
9	0	0	0	0	423	
10	0	0	0	0	425	
11	0	0	0	0	427	
12	0	0	0	0	428	
13	0	0	0	0	430	
14	0	0	0	0	431	
15	0	0	0	0	432	
0	0	0	0	0	433	
1	0	0	0	0	433	
2	0	0	0	0	434	
3	0	0	0	0	435	
4	0	0	0	0	435	
5	0	0	0	0	436	
6	0	0	0	0	438	
7	0	0	0	0	438	
8	0	0	0	0	439	
9	0	0	0	0	440	
10	0	0	0	0	441	
11	0	0	0	0	442	
12	0	0	0	0	443	
13	0	0	0	0	446	
14	0	0	0	0	447	
15	0	0	0	0	448	
0	0	0	0	0	451	
1	0	0	0	0	452	
2	0	0	0	0	455	
3	0	0	0	0	456	
4	0	0	0	0	458	
5	0	0	0	0	460	
6	0	0	0	0	460	
7	0	0	0	0	460	
8	0	0	0	0	460	
9	0	0	0	0	461	
10	0	0	0	0	461	
11	0	0	0	0	462	
12	0	0	0	0	462	
13	0	0	0	0	463	
14	0	0	0	0	463	
15	0	0	0	0	463	
0	0	0	0	0	463	
1	0	0	0	0	464	
2	0	0	0	0	466	
3	0	0	0	0	467	
4	0	0	0	0	470	
5	0	0	0	0	470	
6	0	0	0	0	471	
7	0	0	0	0	472	
8	0	0	0	0	472	
9	0	0	0	0	472	
10	0	0	0	0	472	
11	0	0	0	0	472	
12	0	0	0	0	472	
13	0	0	0	0	474	
14	0	0	0	0	476	
15	0	0	0	0	478	
0	0	0	0	0	478	
1	0	0	0	0	479	
2	0	0	0	0	479	
3	0	0	0	0	480	
4	0	0	0	0	482	
5	0	0	0	0	483	
6	0	0	0	0	484	
7	0	0	0	0	485	
8	0	0	0	0	486	
9	0	0	0	0	486	
10	0	0	0	0	487	
11	0	0	0	0	487	
12	0	0	0	0	487	
13	0	0	0	0	488	
14	0	0	0	0	488	
15	0	0	0	0	488	
0	0	0	0	0	490	
1	0	0	0	0	490	
2	0	0	0	0	491	
3	0	0	0	0	492	
4	0	0	0	0	492	
5	0	0	0	0	493	
6	0	0	0	0	494	
7	0	0	0	0	495	
8	0	0	0	0	496	
9	0	0	0	0	497	
10	0	0	0	0	499	
11	0	0	0	0	499	
12	0	0	0	0	501	
13	0	0	0	0	503	
14	0	0	0	0	503	
15	0	0	0	0	503	
0	0	0	0	0	504	
1	0	0	0	0	503	
2	0	0	0	0	504	
3	0	0	0	0	505	
4	0	0	0	0	505	
5	0	0	0	0	505	
6	0	0	0	0	505	
7	0	0	0	0	506	
8	0	0	0	0	505	
9	0	0	0	0	506	
10	0	0	0	0	506	
11	0	0	0	0	508	
12	0	0	0	0	508	
13	0	0	0	0	509	
14	0	0	0	0	511	
15	0	0	0	0	511	
0	0	0	0	0	512	
1	0	0	0	0	513	
2	0	0	0	0	514	
3	0	0	0	0	514	
4	0	0	0	0	515	
5	0	0	0	0	515	
6	0	0	0	0	516	
7	0	0	0	0	518	
8	0	0	0	0	518	
9	0	0	0	0	518	
10	0	0	0	0	518	
11	0	0	0	0	519	
12	0	0	0	0	520	
13	0	0	0	0	521	
14	0	0	0	0	521	
15	0	0	0	0	521	
0	0	0	0	0	521	
1	0	0	0	0	522	
2	0	0	0	0	524	
3	0	0	0	0	524	
4	0	0	0	0	523	
5	0	0	0	0	522	
6	0	0	0	0	521	
7	0	0	0	0	523	
8	0	0	0	0	524	
9	0	0	0	0	525	
10	0	0	0	0	525	
11	0	0	0	0	526	
12	0	0	0	0	526	
13	0	0	0	0	526	
14	0	0	0	0	526	
15	0	0	0	0	526	
0	0	0	0	0	526	
1	0	0	0	0	526	
2	0	0	0	0	526	
3	0	0	0	0	525	
4	0	0	0	0	524	
5	0	0	0	0	524	
6	0	0	0	0	524	
7	0	0	0	0	523	
8	0	0	0	0	525	
9	0	0	0	0	525	
10	0	0	0	0	527	
11	0	0	0	0	527	
12	0	0	0	0	527	
13	0	0	0	0	526	
14	0	0	0	0	526	
15	0	0	0	0	525	
0	0	0	0	0	525	
1	0	0	0	0	524	
2	0	0	0	0	524	
3	0	0	0	0	525	
4	0	0	0	0	525	
5	0	0	0	0	526	
6	0	0	0	0	525	
7	0	0	0	0	526	
8	0	0	0	0	525	
9	0	0	0	0	526	
10	0	0	0	0	527	
11	0	0	0	0	528	
12	0	0	0	0	530	
13	0	0	0	0	531	
14	0	0	0	0	531	
15	0	0	0	0	531	
0	0	0	0	0	530	
1	0	0	0	0	528	
2	0	0	0	0	527	
3	0	0	0	0	526	
4	0	0	0	0	524	
5	0	0	0	0	522	
6	0	0	0	0	520	
7	0	0	0	0	519	
8	0	0	0	0	519	
9	0	0	0	0	519	
10	0	0	0	0	519	
11	0	0	0	0	519	
12	0	0	0	0	519	
13	0	0	0	0	519	
14	0	0	0	0	519	
15	0	0	0	0	519	
0	0	0	0	0	520	
1	0	0	0	0	521	
2	0	0	0	0	521	
3	0	0	0	0	521	
4	0	0	0	0	523	
5	0	0	0	0	524	
6	0	0	0	0	524	
7	0	0	0	0	523	
8	0	0	0	0	521	
9	0	0	0	0	519	
10	0	0	0	0	518	
11	0	0	0	0	518	
12	0	0	0	0	518	
13	0	0	0	0	517	
14	0	0	0	0	516	
15	0	0	0	0	517	
0	0	0	0	0	516	
1	0	0	0	0	516	
2	0	0	0	0	515	
3	0	0	0	0	513	
4	0	0	0	0	511	
5	0	0	0	0	509	
6	0	0	0	0	508	
7	0	0	0	0	508	
8	0	0	0	0	508	
9	0	0	0	0	506	
10	0	0	0	0	504	
11	0	0	0	0	502	
12	0	0	0	0	499	
13	0	0	0	0	498	
14	0	0	0	0	495	
15	0	0	0	0	493	
0	0	0	0	0	491	
1	0	0	0	0	489	
2	0	0	0	0	488	
3	0	0	0	0	488	
4	0	0	0	0	486	
5	0	0	0	0	484	
6	0	0	0	0	483	
7	0	0	0	0	482	
8	0	0	0	0	482	
9	0	0	0	0	480	
10	0	0	0	0	480	
11	0	0	0	0	479	
12	0	0	0	0	478	
13	0	0	0	0	475	
14	0	0	0	0	472	
15	0	0	0	0	471	
0	0	0	0	0	470	
1	0	0	0	0	469	
2	0	0	0	0	468	
3	0	0	0	0	468	
4	0	0	0	0	466	
5	0	0	0	0	465	
6	0	0	0	0	464	
7	0	0	0	0	463	
8	0	0	0	0	462	
9	0	0	0	0	461	
10	0	0	0	0	461	
11	0	0	0	0	462	
12	0	0	0	0	462	
13	0	0	0	0	461	
14	0	0	0	0	461	
15	0	0	0	0	461	
0	0	0	0	0	461	
1	0	0	0	0	461	
2	0	0	0	0	461	
3	0	0	0	0	461	
4	0	0	0	0	461	
5	0	0	0	0	461	
6	0	0	0	0	460	
7	0	0	0	0	461	
8	0	0	0	0	461	
9	0	0	0	0	462	
10	0	0	0	0	462	
11	0	0	0	0	462	
12	0	0	0	0	461	
13	0	0	0	0	462	
14	0	0	0	0	463	
15	0	0	0	0	464	
0	0	0	0	0	465	
1	0	0	0	0	465	
2	0	0	0	0	465	
3	0	0	0	0	466	
4	0	0	0	0	468	
5	0	0	0	0	468	
6	0	0	0	0	468	
7	0	0	0	0	468	
8	0	0	0	0	468	
9	0	0	0	0	468	
10	0	0	0	0	468	
11	0	0	0	0	468	
12	0	0	0	0	468	
13	0	0	0	0	469	
14	0	0	0	0	470	
15	0	0	0	0	472	
0	0	0	0	0	473	
1	0	0	0	0	476	
2	0	0	0	0	476	
3	0	0	0	0	477	
4	0	0	0	0	478	
5	0	0	0	0	480	
6	0	0	0	0	480	
7	0	0	0	0	482	
8	0	0	0	0	482	
9	0	0	0	0	483	
10	0	0	0	0	485	
11	0	0	0	0	486	
12	0	0	0	0	486	
13	0	0	0	0	485	
14	0	0	0	0	486	
15	0	0	0	0	486	
0	0	0	0	0	486	
1	0	0	0	0	487	
2	0	0	0	0	486	
3	0	0	0	0	487	
4	0	0	0	0	487	
5	0	0	0	0	487	
6	0	0	0	0	487	
7	0	0	0	0	489	
8	0	0	0	0	491	
9	0	0	0	0	492	
10	0	0	0	0	492	
11	0	0	0	0	493	
12	0	0	0	0	494	
13	0	0	0	0	494	
14	0	0	0	0	495	
15	0	0	0	0	495	
0	0	0	0	0	495	
1	0	0	0	0	496	
2	0	0	0	0	496	
3	0	0	0	0	495	
4	0	0	0	0	495	
5	0	0	0	0	496	
6	0	0	0	0	495	
7	0	0	0	0	496	
8	0	0	0	0	497	
9	0	0	0	0	498	
10	0	0	0	0	499	
11	0	0	0	0	500	
12	0	0	0	0	501	
13	0	0	0	0	502	
14	0	0	0	0	504	
15	0	0	0	0	505	
0	0	0	0	0	505	
1	0	0	0	0	506	
2	0	0	0	0	507	
3	0	0	0	0	507	
4	0	0	0	0	506	
5	0	0	0	0	505	
6	0	0	0	0	505	
7	0	0	0	0	504	
8	0	0	0	0	503	
9	0	0	0	0	502	
10	0	0	0	0	502	
11	0	0	0	0	502	
12	0	0	0	0	502	
13	0	0	0	0	502	
14	0	0	0	0	503	
15	0	0	0	0	503	
0	0	0	0	0	504	
1	0	0	0	0	505	
2	0	0	0	0	505	
3	0	0	0	0	506	
4	0	0	0	0	506	
5	0	0	0	0	506	
6	0	0	0	0	506	
7	0	0	0	0	505	
8	0	0	0	0	505	
9	0	0	0	0	505	
10	0	0	0	0	504	
11	0	0	0	0	505	
12	0	0	0	0	505	
13	0	0	0	0	506	
14	0	0	0	0	505	
15	0	0	0	0	506	
0	0	0	0	0	507	
1	0	0	0	0	507	
2	0	0	0	0	507	
3	0	0	0	0	508	
4	0	0	0	0	508	
5	0	0	0	0	508	
6	0	0	0	0	506	
7	0	0	0	0	505	
8	0	0	0	0	504	
9	0	0	0	0	503	
10	0	0	0	0	503	
11	0	0	0	0	504	
12	0	0	0	0	504	
13	0	0	0	0	504	
14	0	0	0	0	504	
15	0	0	0	0	505	
0	0	0	0	0	505	
1	0	0	0	0	505	
2	0	0	0	0	505	
3	0	0	0	0	506	
4	0	0	0	0	507	
5	0	0	0	0	508	
6	0	0	0	0	509	
7	0	0	0	0	510	
8	0	0	0	0	511	
9	0	0	0	0	511	
10	0	0	0	0	511	
11	0	0	0	0	510	
12	0	0	0	0	509	
13	0	0	0	0	508	
14	0	0	0	0	508	
15	0	0	0	0	508	
0	0	0	0	0	508	
1	0	0	0	0	508	
2	0	0	0	0	507	
3	0	0	0	0	507	
4	0	0	0	0	507	
5	0	0	0	0	506	
6	0	0	0	0	505	
7	0	0	0	0	506	
8	0	0	0	0	506	
9	0	0	0	0	505	
10	0	0	0	0	505	
11	0	0	0	0	506	
12	0	0	0	0	507	
13	0	0	0	0	507	
14	0	0	0	0	508	
15	0	0	0	0	511	
0	0	0	0	0	511	
1	0	0	0	0	512	
2	0	0	0	0	511	
3	0	0	0	0	510	
4	0	0	0	0	510	
5	0	0	0	0	509	
6	0	0	0	0	508	
7	0	0	0	0	507	
8	0	0	0	0	506	
9	0	0	0	0	506	
10	0	0	0	0	505	
11	0	0	0	0	505	
12	0	0	0	0	506	
13	0	0	0	0	508	
14	0	0	0	0	508	
15	0	0	0	0	508	
0	0	0	0	0	508	
1	0	0	0	0	508	
2	0	0	0	0	507	
3	0	0	0	0	508	
4	0	0	0	0	508	
5	0	0	0	0	508	
6	0	0	0	0	508	
7	0	0	0	0	507	
8	0	0	0	0	507	
9	0	0	0	0	507	
10	0	0	0	0	507	
11	0	0	0	0	506	
12	0	0	0	0	506	
13	0	0	0	0	506	
14	0	0	0	0	505	
15	0	0	0	0	505	
0	0	0	0	0	504	
1	0	0	0	0	505	
2	0	0	0	0	506	
3	0	0	0	0	507	
4	0	0	0	0	507	
5	0	0	0	0	508	
6	0	0	0	0	508	
7	0	0	0	0	508	
8	0	0	0	0	508	
9	0	0	0	0	508	
10	0	0	0	0	508	
11	0	0	0	0	508	
12	0	0	0	0	507	
13	0	0	0	0	508	
14	0	0	0	0	509	
15	0	0	0	0	508	
0	0	0	0	0	508	
1	0	0	0	0	508	
2	0	0	0	0	508	
3	0	0	0	0	508	
4	0	0	0	0	507	
5	0	0	0	0	507	
6	0	0	0	0	507	
7	0	0	0	0	507	
8	0	0	0	0	507	
9	0	0	0	0	507	
10	0	0	0	0	507	
11	0	0	0	0	506	
12	0	0	0	0	506	
13	0	0	0	0	506	
14	0	0	0	0	506	
15	0	0	0	0	505	
0	0	0	0	0	504	
1	0	0	0	0	503	
2	0	0	0	0	502	
3	0	0	0	0	502	
4	0	0	0	0	502	
5	0	0	0	0	503	
6	0	0	0	0	503	
7	0	0	0	0	504	
8	0	0	0	0	507	
9	0	0	0	0	509	
10	0	0	0	0	510	
11	0	0	0	0	511	
12	0	0	0	0	511	
13	0	0	0	0	511	
14	0	0	0	0	511	
15	0	0	0	0	511	
0	0	0	0	0	511	
1	0	0	0	0	510	
2	0	0	0	0	509	
3	0	0	0	0	508	
4	0	0	0	0	506	
5	0	0	0	0	506	
6	0	0	0	0	506	
7	0	0	0	0	507	
8	0	0	0	0	507	
9	0	0	0	0	508	
10	0	0	0	0	509	
11	0	0	0	0	510	
12	0	0	0	0	510	
13	0	0	0	0	511	
14	0	0	0	0	511	
15	0	0	0	0	510	
0	0	0	0	0	510	
1	0	0	0	0	510	
2	0	0	0	0	509	
3	0	0	0	0	509	
4	0	0	0	0	508	
5	0	0	0	0	508	
6	0	0	0	0	508	
7	0	0	0	0	508	
8	0	0	0	0	509	
9	0	0	0	0	509	
10	0	0	0	0	510	
11	0	0	0	0	510	
12	0	0	0	0	511	
13	0	0	0	0	511	
14	0	0	0	0	511	
15	0	0	0	0	511	
0	0	0	0	0	511	
1	0	0	0	0	511	
2	0	0	0	0	511	
3	0	0	0	0	512	
4	0	0	0	0	513	
5	0	0	0	0	512	
6	0	0	0	0	511	
7	0	0	0	0	511	
8	0	0	0	0	510	
9	0	0	0	0	509	
10	0	0	0	0	509	
11	0	0	0	0	509	
12	0	0	0	0	510	
13	0	0	0	0	510	
14	0	0	0	0	511	
15	0	0	0	0	511	
0	0	0	0	0	511	
1	0	0	0	0	511	
2	0	0	0	0	511	
3	0	0	0	0	510	
4	0	0	0	0	510	
5	0	0	0	0	511	
6	0	0	0	0	512	
7	0	0	0	0	512	
8	0	0	0	0	512	
9	0	0	0	0	513	
10	0	0	0	0	514	
11	0	0	0	0	515	
12	0	0	0	0	515	
13	0	0	0	0	516	
14	0	0	0	0	515	
15	0	0	0	0	514	
0	0	0	0	0	513	
1	0	0	0	0	511	
2	0	0	0	0	511	
3	0	0	0	0	510	
4	0	0	0	0	510	
5	0	0	0	0	510	
6	0	0	0	0	511	
7	0	0	0	0	511	
8	0	0	0	0	511	
9	0	0	0	0	511	
10	0	0	0	0	512	
11	0	0	0	0	512	
12	0	0	0	0	513	
13	0	0	0	0	514	
14	0	0	0	0	515	
15	0	0	0	0	515	
0	0	0	0	0	515	
1	0	0	0	0	514	
2	0	0	0	0	515	
3	0	0	0	0	515	
4	0	0	0	0	515	
5	0	0	0	0	515	
6	0	0	0	0	514	
7	0	0	0	0	513	
8	0	0	0	0	512	
9	0	0	0	0	512	
10	0	0	0	0	512	
11	0	0	0	0	512	
12	0	0	0	0	512	
13	0	0	0	0	512	
14	0	0	0	0	514	
15	0	0	0	0	514	
0	0	0	0	0	514	
1	0	0	0	0	514	
2	0	0	0	0	514	
3	0	0	0	0	514	
4	0	0	0	0	515	
5	0	0	0	0	515	
6	0	0	0	0	516	
7	0	0	0	0	516	
8	0	0	0	0	516	
9	0	0	0	0	515	
10	0	0	0	0	515	
11	0	0	0	0	515	
12	0	0	0	0	515	
13	0	0	0	0	514	
14	0	0	0	0	514	
15	0	0	0	0	513	
0	0	0	0	0	513	
1	0	0	0	0	515	
2	0	0	0	0	515	
3	0	0	0	0	516	
4	0	0	0	0	516	
5	0	0	0	0	516	
6	0	0	0	0	516	
7	0	0	0	0	516	
8	0	0	0	0	517	
9	0	0	0	0	516	
10	0	0	0	0	517	
11	0	0	0	0	516	
12	0	0	0	0	517	
13	0	0	0	0	517	
14	0	0	0	0	518	
15	0	0	0	0	517	
0	0	0	0	0	517	
1	0	0	0	0	516	
2	0	0	0	0	515	
3	0	0	0	0	515	
4	0	0	0	0	515	
5	0	0	0	0	513	
6	0	0	0	0	514	
7	0	0	0	0	515	
8	0	0	0	0	516	
9	0	0	0	0	518	
10	0	0	0	0	518	
11	0	0	0	0	519	
12	0	0	0	0	520	
13	0	0	0	0	520	
14	0	0	0	0	521	
15	0	0	0	0	519	
0	0	0	0	0	518	
1	0	0	0	0	516	
2	0	0	0	0	516	
3	0	0	0	0	517	
4	0	0	0	0	517	
5	0	0	0	0	518	
6	0	0	0	0	519	
7	0	0	0	0	519	
8	0	0	0	0	519	
9	0	0	0	0	521	
10	0	0	0	0	522	
11	0	0	0	0	523	
12	0	0	0	0	525	
13	0	0	0	0	526	
14	0	0	0	0	527	
15	0	0	0	0	529	
0	0	0	0	0	531	
1	0	0	0	0	532	
2	0	0	0	0	533	
3	0	0	0	0	534	
4	0	0	0	0	535	
5	0	0	0	0	534	
6	0	0	0	0	532	
7	0	0	0	0	530	
8	0	0	0	0	527	
9	0	0	0	0	524	
10	0	0	0	0	522	
11	0	0	0	0	520	
12	0	0	0	0	519	
13	0	0	0	0	517	
14	0	0	0	0	516	
15	0	0	0	0	515	
0	0	0	0	0	514	
1	0	0	0	0	515	
2	0	0	0	0	516	
3	0	0	0	0	519	
4	0	0	0	0	521	
5	0	0	0	0	524	
6	0	0	0	0	527	
7	0	0	0	0	527	
8	0	0	0	0	528	
9	0	0	0	0	529	
10	0	0	0	0	531	
11	0	0	0	0	532	
12	0	0	0	0	534	
13	0	0	0	0	535	
14	0	0	0	0	534	
15	0	0	0	0	534	
0	0	0	0	0	533	
1	0	0	0	0	533	
2	0	0	0	0	532	
3	0	0	0	0	531	
4	0	0	0	0	529	
5	0	0	0	0	527	
6	0	0	0	0	526	
7	0	0	0	0	526	
8	0	0	0	0	525	
9	0	0	0	0	523	
10	0	0	0	0	521	
11	0	0	0	0	519	
12	0	0	0	0	519	
13	0	0	0	0	517	
14	0	0	0	0	518	
15	0	0	0	0	518	
0	0	0	0	0	518	
1	0	0	0	0	517	
2	0	0	0	0	517	
3	0	0	0	0	516	
4	0	0	0	0	516	
5	0	0	0	0	516	
6	0	0	0	0	516	
7	0	0	0	0	516	
8	0	0	0	0	516	
9	0	0	0	0	517	
10	0	0	0	0	518	
11	0	0	0	0	519	
12	0	0	0	0	519	
13	0	0	0	0	519	
14	0	0	0	0	517	
15	0	0	0	0	515	
0	0	0	0	0	513	
1	0	0	0	0	511	
2	0	0	0	0	510	
3	0	0	0	0	508	
4	0	0	0	0	506	
5	0	0	0	0	505	
6	0	0	0	0	505	
7	0	0	0	0	505	
8	0	0	0	0	507	
9	0	0	0	0	507	
10	0	0	0	0	507	
11	0	0	0	0	507	
12	0	0	0	0	507	
13	0	0	0	0	508	
14	0	0	0	0	509	
15	0	0	0	0	510	
0	0	0	0	0	511	
1	0	0	0	0	511	
2	0	0	0	0	511	
3	0	0	0	0	510	
4	0	0	0	0	510	
5	0	0	0	0	510	
6	0	0	0	0	510	
7	0	0	0	0	509	
8	0	0	0	0	510	
9	0	0	0	0	509	
10	0	0	0	0	510	
11	0	0	0	0	510	
12	0	0	0	0	511	
13	0	0	0	0	512	
14	0	0	0	0	512	
15	0	0	0	0	513	
0	0	0	0	0	514	
1	0	0	0	0	515	
2	0	0	0	0	515	
3	0	0	0	0	515	
4	0	0	0	0	514	
5	0	0	0	0	514	
6	0	0	0	0	513	
7	0	0	0	0	511	
8	0	0	0	0	510	
9	0	0	0	0	507	
10	0	0	0	0	505	
11	0	0	0	0	504	
12	0	0	0	0	504	
13	0	0	0	0	504	
14	0	0	0	0	504	
15	0	0	0	0	506	
0	0	0	0	0	509	
1	0	0	0	0	513	
2	0	0	0	0	520	
3	0	0	0	0	530	
4	0	0	0	0	539	
5	0	0	0	0	551	
6	0	0	0	0	563	
7	0	0	0	0	576	
8	0	0	0	0	591	
9	0	0	0	0	604	
10	0	0	0	0	618	
11	0	0	0	0	632	
12	0	0	0	0	647	
13	0	0	0	0	666	
14	0	0	0	0	687	
15	0	0	0	0	708	
0	0	0	0	0	732	
1	0	0	0	0	755	
2	0	0	0	0	777	
3	0	0	0	0	800	
4	0	0	0	0	824	
5	0	0	0	0	851	
6	0	0	0	0	880	
7	0	0	0	0	908	
8	0	0	0	0	934	
9	0	0	0	0	960	
10	0	0	0	0	986	
11	0	0	0	0	1008	
12	0	0	0	0	1021	
13	0	0	0	0	1022	
14	0	0	0	0	1022	
15	0	0	0	0	1022	
0	0	0	0	0	1022	
1	0	0	0	0	1022	
2	0	0	0	0	1022	
3	0	0	0	0	1016	
4	0	0	0	0	995	
5	0	0	0	0	970	
6	0	0	0	0	937	
7	0	0	0	0	898	
8	0	0	0	0	851	
9	0	0	0	0	798	
10	0	0	0	0	743	
11	0	0	0	0	688	
12	0	0	0	0	638	
13	0	0	0	0	591	
14	0	0	0	0	552	
15	0	0	0	0	519	
0	0	0	0	0	492	
1	0	0	0	0	471	
2	0	0	0	0	454	
3	0	0	0	0	442	
4	0	0	0	0	433	
5	0	0	0	0	426	
6	0	0	0	0	419	
7	0	0	0	0	411	
8	0	0	0	0	404	
9	0	0	0	0	399	
10	0	0	0	0	395	
11	0	0	0	0	392	
12	0	0	0	0	391	
13	0	0	0	0	391	
14	0	0	0	0	391	
15	0	0	0	0	391	
0	0	0	0	0	393	
1	0	0	0	0	394	
2	0	0	0	0	394	
3	0	0	0	0	396	
4	0	0	0	0	398	
5	0	0	0	0	400	
6	0	0	0	0	402	
7	0	0	0	0	404	
8	0	0	0	0	407	
9	0	0	0	0	409	
10	0	0	0	0	410	
11	0	0	0	0	411	
12	0	0	0	0	411	
13	0	0	0	0	411	
14	0	0	0	0	411	
15	0	0	0	0	410	
0	0	0	0	0	409	
1	0	0	0	0	410	
2	0	0	0	0	411	
3	0	0	0	0	412	
4	0	0	0	0	412	
5	0	0	0	0	412	
6	0	0	0	0	413	
7	0	0	0	0	414	
8	0	0	0	0	415	
9	0	0	0	0	415	
10	0	0	0	0	415	
11	0	0	0	0	415	
12	0	0	0	0	414	
13	0	0	0	0	413	
14	0	0	0	0	414	
15	0	0	0	0	414	
0	0	0	0	0	415	
1	0	0	0	0	415	
2	0	0	0	0	416	
3	0	0	0	0	418	
4	0	0	0	0	419	
5	0	0	0	0	420	
6	0	0	0	0	420	
7	0	0	0	0	423	
8	0	0	0	0	425	
9	0	0	0	0	427	
10	0	0	0	0	429	
11	0	0	0	0	431	
12	0	0	0	0	433	
13	0	0	0	0	434	
14	0	0	0	0	435	
15	0	0	0	0	437	
0	0	0	0	0	438	
1	0	0	0	0	438	
2	0	0	0	0	439	
3	0	0	0	0	440	
4	0	0	0	0	440	
5	0	0	0	0	441	
6	0	0	0	0	442	
7	0	0	0	0	443	
8	0	0	0	0	444	
9	0	0	0	0	444	
10	0	0	0	0	445	
11	0	0	0	0	446	
12	0	0	0	0	447	
13	0	0	0	0	448	
14	0	0	0	0	448	
15	0	0	0	0	451	
0	0	0	0	0	453	
1	0	0	0	0	455	
2	0	0	0	0	456	
3	0	0	0	0	457	
4	0	0	0	0	457	
5	0	0	0	0	459	
6	0	0	0	0	460	
7	0	0	0	0	460	
8	0	0	0	0	460	
9	0	0	0	0	460	
10	0	0	0	0	460	
11	0	0	0	0	462	
12	0	0	0	0	464	
13	0	0	0	0	466	
14	0	0	0	0	468	
15	0	0	0	0	470	
0	0	0	0	0	471	
1	0	0	0	0	472	
2	0	0	0	0	472	
3	0	0	0	0	474	
4	0	0	0	0	475	
5	0	0	0	0	476	
6	0	0	0	0	477	
7	0	0	0	0	479	
8	0	0	0	0	479	
9	0	0	0	0	480	
10	0	0	0	0	481	
11	0	0	0	0	482	
12	0	0	0	0	482	
13	0	0	0	0	484	
14	0	0	0	0	484	
15	0	0	0	0	485	
0	0	0	0	0	486	
1	0	0	0	0	487	
2	0	0	0	0	487	
3	0	0	0	0	487	
4	0	0	0	0	488	
5	0	0	0	0	491	
6	0	0	0	0	492	
7	0	0	0	0	494	
8	0	0	0	0	494	
9	0	0	0	0	495	
10	0	0	0	0	495	
11	0	0	0	0	495	
12	0	0	0	0	494	
13	0	0	0	0	495	
14	0	0	0	0	496	
15	0	0	0	0	497	
0	0	0	0	0	498	
1	0	0	0	0	499	
2	0	0	0	0	500	
3	0	0	0	0	501	
4	0	0	0	0	502	
5	0	0	0	0	503	
6	0	0	0	0	504	
7	0	0	0	0	505	
8	0	0	0	0	506	
9	0	0	0	0	507	
10	0	0	0	0	507	
11	0	0	0	0	508	
12	0	0	0	0	510	
13	0	0	0	0	511	
14	0	0	0	0	511	
15	0	0	0	0	511	
0	0	0	0	0	511	
1	0	0	0	0	509	
2	0	0	0	0	510	
3	0	0	0	0	508	
4	0	0	0	0	508	
5	0	0	0	0	509	
6	0	0	0	0	510	
7	0	0	0	0	509	
8	0	0	0	0	510	
9	0	0	0	0	511	
10	0	0	0	0	511	
11	0	0	0	0	512	
12	0	0	0	0	512	
13	0	0	0	0	514	
14	0	0	0	0	515	
15	0	0	0	0	515	
0	0	0	0	0	517	
1	0	0	0	0	518	
2	0	0	0	0	519	
3	0	0	0	0	519	
4	0	0	0	0	519	
5	0	0	0	0	519	
6	0	0	0	0	518	
7	0	0	0	0	517	
8	0	0	0	0	517	
9	0	0	0	0	517	
10	0	0	0	0	516	
11	0	0	0	0	516	
12	0	0	0	0	517	
13	0	0	0	0	518	
14	0	0	0	0	519	
15	0	0	0	0	519	
0	0	0	0	0	519	
1	0	0	0	0	519	
2	0	0	0	0	519	
3	0	0	0	0	520	
4	0	0	0	0	520	
5	0	0	0	0	521	
6	0	0	0	0	521	
7	0	0	0	0	520	
8	0	0	0	0	521	
9	0	0	0	0	520	
10	0	0	0	0	520	
11	0	0	0	0	519	
12	0	0	0	0	519	
13	0	0	0	0	518	
14	0	0	0	0	518	
15	0	0	0	0	519	
0	0	0	0	0	519	
1	0	0	0	0	520	
2	0	0	0	0	521	
3	0	0	0	0	522	
4	0	0	0	0	522	
5	0	0	0	0	522	
6	0	0	0	0	522	
7	0	0	0	0	523	
8	0	0	0	0	523	
9	0	0	0	0	524	
10	0	0	0	0	523	
11	0	0	0	0	521	
12	0	0	0	0	520	
13	0	0	0	0	519	
14	0	0	0	0	520	
15	0	0	0	0	519	
0	0	0	0	0	518	
1	0	0	0	0	518	
2	0	0	0	0	517	
3	0	0	0	0	517	
4	0	0	0	0	516	
5	0	0	0	0	517	
6	0	0	0	0	518	
7	0	0	0	0	518	
8	0	0	0	0	519	
9	0	0	0	0	519	
10	0	0	0	0	519	
11	0	0	0	0	519	
12	0	0	0	0	520	
13	0	0	0	0	519	
14	0	0	0	0	519	
15	0	0	0	0	519	
0	0	0	0	0	520	
1	0	0	0	0	519	
2	0	0	0	0	519	
3	0	0	0	0	519	
4	0	0	0	0	519	
5	0	0	0	0	519	
6	0	0	0	0	518	
7	0	0	0	0	517	
8	0	0	0	0	515	
9	0	0	0	0	515	
10	0	0	0	0	516	
11	0	0	0	0	516	
12	0	0	0	0	516	
13	0	0	0	0	516	
14	0	0	0	0	515	
15	0	0	0	0	515	
0	0	0	0	0	515	
1	0	0	0	0	515	
2	0	0	0	0	515	
3	0	0	0	0	513	
4	0	0	0	0	513	
5	0	0	0	0	512	
6	0	0	0	0	510	
7	0	0	0	0	508	
8	0	0	0	0	508	
9	0	0	0	0	507	
10	0	0	0	0	505	
11	0	0	0	0	503	
12	0	0	0	0	503	
13	0	0	0	0	501	
14	0	0	0	0	499	
15	0	0	0	0	498	
0	0	0	0	0	497	
1	0	0	0	0	497	
2	0	0	0	0	496	
3	0	0	0	0	494	
4	0	0	0	0	492	
5	0	0	0	0	490	
6	0	0	0	0	487	
7	0	0	0	0	486	
8	0	0	0	0	485	
9	0	0	0	0	484	
10	0	0	0	0	483	
11	0	0	0	0	481	
12	0	0	0	0	479	
13	0	0	0	0	478	
14	0	0	0	0	476	
15	0	0	0	0	475	
0	0	0	0	0	474	
1	0	0	0	0	474	
2	0	0	0	0	473	
3	0	0	0	0	472	
4	0	0	0	0	471	
5	0	0	0	0	471	
6	0	0	0	0	469	
7	0	0	0	0	469	
8	0	0	0	0	468	
9	0	0	0	0	467	
10	0	0	0	0	466	
11	0	0	0	0	464	
12	0	0	0	0	463	
13	0	0	0	0	461	
14	0	0	0	0	460	
15	0	0	0	0	460	
0	0	0	0	0	459	
1	0	0	0	0	459	
2	0	0	0	0	458	
3	0	0	0	0	457	
4	0	0	0	0	457	
5	0	0	0	0	456	
6	0	0	0	0	458	
7	0	0	0	0	459	
8	0	0	0	0	459	
9	0	0	0	0	459	
10	0	0	0	0	459	
11	0	0	0	0	459	
12	0	0	0	0	459	
13	0	0	0	0	460	
14	0	0	0	0	459	
15	0	0	0	0	460	
0	0	0	0	0	460	
1	0	0	0	0	459	
2	0	0	0	0	459	
3	0	0	0	0	460	
4	0	0	0	0	460	
5	0	0	0	0	459	
6	0	0	0	0	460	
7	0	0	0	0	460	
8	0	0	0	0	460	
9	0	0	0	0	461	
10	0	0	0	0	462	
11	0	0	0	0	463	
12	0	0	0	0	463	
13	0	0	0	0	464	
14	0	0	0	0	465	
15	0	0	0	0	466	
0	0	0	0	0	466	
1	0	0	0	0	466	
2	0	0	0	0	467	
3	0	0	0	0	467	
4	0	0	0	0	467	
5	0	0	0	0	468	
6	0	0	0	0	468	
7	0	0	0	0	468	
8	0	0	0	0	469	
9	0	0	0	0	470	
10	0	0	0	0	470	
11	0	0	0	0	470	
12	0	0	0	0	470	
13	0	0	0	0	471	
14	0	0	0	0	472	
15	0	0	0	0	473	
0	0	0	0	0	474	
1	0	0	0	0	476	
2	0	0	0	0	477	
3	0	0	0	0	479	
4	0	0	0	0	479	
5	0	0	0	0	480	
6	0	0	0	0	479	
7	0	0	0	0	478	
8	0	0	0	0	479	
9	0	0	0	0	478	
10	0	0	0	0	478	
11	0	0	0	0	478	
12	0	0	0	0	480	
13	0	0	0	0	481	
14	0	0	0	0	482	
15	0	0	0	0	483	
0	0	0	0	0	484	
1	0	0	0	0	485	
2	0	0	0	0	487	
3	0	0	0	0	487	
4	0	0	0	0	488	
5	0	0	0	0	489	
6	0	0	0	0	489	
7	0	0	0	0	491	
8	0	0	0	0	492	
9	0	0	0	0	494	
10	0	0	0	0	495	
11	0	0	0	0	495	
12	0	0	0	0	495	
13	0	0	0	0	496	
14	0	0	0	0	496	
15	0	0	0	0	495	
0	0	0	0	0	495	
1	0	0	0	0	495	
2	0	0	0	0	494	
3	0	0	0	0	493	
4	0	0	0	0	493	
5	0	0	0	0	494	
6	0	0	0	0	495	
7	0	0	0	0	496	
8	0	0	0	0	497	
9	0	0	0	0	497	
10	0	0	0	0	497	
11	0	0	0	0	498	
12	0	0	0	0	498	
13	0	0	0	0	499	
14	0	0	0	0	499	
15	0	0	0	0	499	
0	0	0	0	0	499	
1	0	0	0	0	499	
2	0	0	0	0	498	
3	0	0	0	0	498	
4	0	0	0	0	499	
5	0	0	0	0	500	
6	0	0	0	0	500	
7	0	0	0	0	501	
8	0	0	0	0	503	
9	0	0	0	0	503	
10	0	0	0	0	504	
11	0	0	0	0	504	
12	0	0	0	0	505	
13	0	0	0	0	506	
14	0	0	0	0	505	
15	0	0	0	0	507	
0	0	0	0	0	506	
1	0	0	0	0	507	
2	0	0	0	0	506	
3	0	0	0	0	505	
4	0	0	0	0	505	
5	0	0	0	0	504	
6	0	0	0	0	504	
7	0	0	0	0	504	
8	0	0	0	0	503	
9	0	0	0	0	504	
10	0	0	0	0	504	
11	0	0	0	0	505	
12	0	0	0	0	504	
13	0	0	0	0	504	
14	0	0	0	0	504	
15	0	0	0	0	506	
0	0	0	0	0	507	
1	0	0	0	0	508	
2	0	0	0	0	507	
3	0	0	0	0	507	
4	0	0	0	0	505	
5	0	0	0	0	506	
6	0	0	0	0	505	
7	0	0	0	0	504	
8	0	0	0	0	505	
9	0	0	0	0	504	
10	0	0	0	0	504	
11	0	0	0	0	504	
12	0	0	0	0	504	
13	0	0	0	0	504	
14	0	0	0	0	504	
15	0	0	0	0	505	
0	0	0	0	0	506	
1	0	0	0	0	507	
2	0	0	0	0	507	
3	0	0	0	0	508	
4	0	0	0	0	508	
5	0	0	0	0	508	
6	0	0	0	0	507	
7	0	0	0	0	507	
8	0	0	0	0	505	
9	0	0	0	0	505	
10	0	0	0	0	505	
11	0	0	0	0	504	
12	0	0	0	0	504	
13	0	0	0	0	504	
14	0	0	0	0	504	
15	0	0	0	0	504	
0	0	0	0	0	504	
1	0	0	0	0	504	
2	0	0	0	0	504	
3	0	0	0	0	504	
4	0	0	0	0	503	
5	0	0	0	0	504	
6	0	0	0	0	505	
7	0	0	0	0	507	
8	0	0	0	0	507	
9	0	0	0	0	507	
10	0	0	0	0	505	
11	0	0	0	0	506	
12	0	0	0	0	506	
13	0	0	0	0	506	
14	0	0	0	0	507	
15	0	0	0	0	507	
0	0	0	0	0	505	
1	0	0	0	0	505	
2	0	0	0	0	505	
3	0	0	0	0	504	
4	0	0	0	0	504	
5	0	0	0	0	504	
6	0	0	0	0	503	
7	0	0	0	0	502	
8	0	0	0	0	501	
9	0	0	0	0	500	
10	0	0	0	0	500	
11	0	0	0	0	501	
12	0	0	0	0	502	
13	0	0	0	0	503	
14	0	0	0	0	504	
15	0	0	0	0	504	
0	0	0	0	0	504	
1	0	0	0	0	504	
2	0	0	0	0	504	
3	0	0	0	0	504	
4	0	0	0	0	505	
5	0	0	0	0	504	
6	0	0	0	0	504	
7	0	0	0	0	504	
8	0	0	0	0	503	
9	0	0	0	0	503	
10	0	0	0	0	504	
11	0	0	0	0	505	
12	0	0	0	0	508	
13	0	0	0	0	510	
14	0	0	0	0	511	
15	0	0	0	0	512	
0	0	0	0	0	513	
1	0	0	0	0	514	
2	0	0	0	0	514	
3	0	0	0	0	514	
4	0	0	0	0	514	
5	0	0	0	0	515	
6	0	0	0	0	515	
7	0	0	0	0	515	
8	0	0	0	0	513	
9	0	0	0	0	511	
10	0	0	0	0	510	
11	0	0	0	0	509	
12	0	0	0	0	508	
13	0	0	0	0	508	
14	0	0	0	0	508	
15	0	0	0	0	508	
0	0	0	0	0	508	
1	0	0	0	0	508	
2	0	0	0	0	510	
3	0	0	0	0	511	
4	0	0	0	0	512	
5	0	0	0	0	512	
6	0	0	0	0	512	
7	0	0	0	0	513	
8	0	0	0	0	512	
9	0	0	0	0	511	
10	0	0	0	0	510	
11	0	0	0	0	508	
12	0	0	0	0	508	
13	0	0	0	0	507	
14	0	0	0	0	507	
15	0	0	0	0	506	
0	0	0	0	0	507	
1	0	0	0	0	508	
2	0	0	0	0	508	
3	0	0	0	0	508	
4	0	0	0	0	509	
5	0	0	0	0	509	
6	0	0	0	0	510	
7	0	0	0	0	511	
8	0	0	0	0	513	
9	0	0	0	0	514	
10	0	0	0	0	513	
11	0	0	0	0	513	
12	0	0	0	0	512	
13	0	0	0	0	512	
14	0	0	0	0	511	
15	0	0	0	0	510	
0	0	0	0	0	508	
1	0	0	0	0	507	
2	0	0	0	0	506	
3	0	0	0	0	505	
4	0	0	0	0	505	
5	0	0	0	0	505	
6	0	0	0	0	505	
7	0	0	0	0	506	
8	0	0	0	0	506	
9	0	0	0	0	507	
10	0	0	0	0	508	
11	0	0	0	0	508	
12	0	0	0	0	508	
13	0	0	0	0	510	
14	0	0	0	0	511	
15	0	0	0	0	511	
0	0	0	0	0	512	
1	0	0	0	0	512	
2	0	0	0	0	513	
3	0	0	0	0	513	
4	0	0	0	0	513	
5	0	0	0	0	512	
6	0	0	0	0	512	
7	0	0	0	0	511	
8	0	0	0	0	510	
9	0	0	0	0	509	
10	0	0	0	0	510	
11	0	0	0	0	511	
12	0	0	0	0	512	
13	0	0	0	0	513	
14	0	0	0	0	515	
15	0	0	0	0	515	
0	0	0	0	0	515	
1	0	0	0	0	515	
2	0	0	0	0	515	
3	0	0	0	0	515	
4	0	0	0	0	515	
5	0	0	0	0	515	
6	0	0	0	0	515	
7	0	0	0	0	515	
8	0	0	0	0	515	
9	0	0	0	0	514	
10	0	0	0	0	514	
11	0	0	0	0	514	
12	0	0	0	0	515	
13	0	0	0	0	515	
14	0	0	0	0	516	
15	0	0	0	0	516	
0	0	0	0	0	516	
1	0	0	0	0	516	
2	0	0	0	0	516	
3	0	0	0	0	516	
4	0	0	0	0	515	
5	0	0	0	0	514	
6	0	0	0	0	514	
7	0	0	0	0	514	
8	0	0	0	0	514	
9	0	0	0	0	514	
10	0	0	0	0	514	
11	0	0	0	0	514	
12	0	0	0	0	513	
13	0	0	0	0	512	
14	0	0	0	0	512	
15	0	0	0	0	512	
0	0	0	0	0	512	
1	0	0	0	0	512	
2	0	0	0	0	513	
3	0	0	0	0	513	
4	0	0	0	0	513	
5	0	0	0	0	514	
6	0	0	0	0	513	
7	0	0	0	0	513	
8	0	0	0	0	512	
9	0	0	0	0	513	
10	0	0	0	0	513	
11	0	0	0	0	513	
12	0	0	0	0	513	
13	0	0	0	0	512	
14	0	0	0	0	512	
15	0	0	0	0	513	
0	0	0	0	0	514	
1	0	0	0	0	515	
2	0	0	0	0	515	
3	0	0	0	0	516	
4	0	0	0	0	515	
5	0	0	0	0	515	
6	0	0	0	0	516	
7	0	0	0	0	516	
8	0	0	0	0	518	
9	0	0	0	0	518	
10	0	0	0	0	518	
11	0	0	0	0	519	
12	0	0	0	0	519	
13	0	0	0	0	519	
14	0	0	0	0	519	
15	0	0	0	0	519	
0	0	0	0	0	519	
1	0	0	0	0	519	
2	0	0	0	0	518	
3	0	0	0	0	517	
4	0	0	0	0	518	
5	0	0	0	0	517	
6	0	0	0	0	518	
7	0	0	0	0	517	
8	0	0	0	0	517	
9	0	0	0	0	516	
10	0	0	0	0	516	
11	0	0	0	0	515	
12	0	0	0	0	515	
13	0	0	0	0	516	
14	0	0	0	0	516	
15	0	0	0	0	516	
0	0	0	0	0	517	
1	0	0	0	0	518	
2	0	0	0	0	519	
3	0	0	0	0	520	
4	0	0	0	0	521	
5	0	0	0	0	521	
6	0	0	0	0	521	
7	0	0	0	0	521	
8	0	0	0	0	521	
9	0	0	0	0	521	
10	0	0	0	0	521	
11	0	0	0	0	521	
12	0	0	0	0	520	
13	0	0	0	0	520	
14	0	0	0	0	519	
15	0	0	0	0	519	
0	0	0	0	0	520	
1	0	0	0	0	520	
2	0	0	0	0	520	
3	0	0	0	0	519	
4	0	0	0	0	519	
5	0	0	0	0	519	
6	0	0	0	0	520	
7	0	0	0	0	521	
8	0	0	0	0	521	
9	0	0	0	0	521	
10	0	0	0	0	520	
11	0	0	0	0	519	
12	0	0	0	0	519	
13	0	0	0	0	518	
14	0	0	0	0	517	
15	0	0	0	0	517	
0	0	0	0	0	517	
1	0	0	0	0	516	
2	0	0	0	0	516	
3	0	0	0	0	517	
4	0	0	0	0	519	
5	0	0	0	0	520	
6	0	0	0	0	523	
7	0	0	0	0	524	
8	0	0	0	0	526	
9	0	0	0	0	527	
10	0	0	0	0	528	
11	0	0	0	0	531	
12	0	0	0	0	532	
13	0	0	0	0	534	
14	0	0	0	0	534	
15	0	0	0	0	534	
0	0	0	0	0	535	
1	0	0	0	0	534	
2	0	0	0	0	534	
3	0	0	0	0	533	
4	0	0	0	0	531	
5	0	0	0	0	528	
6	0	0	0	0	525	
7	0	0	0	0	523	
8	0	0	0	0	521	
9	0	0	0	0	519	
10	0	0	0	0	519	
11	0	0	0	0	518	
12	0	0	0	0	518	
13	0	0	0	0	517	
14	0	0	0	0	516	
15	0	0	0	0	516	
0	0	0	0	0	518	
1	0	0	0	0	520	
2	0	0	0	0	521	
3	0	0	0	0	521	
4	0	0	0	0	523	
5	0	0	0	0	523	
6	0	0	0	0	524	
7	0	0	0	0	525	
8	0	0	0	0	526	
9	0	0	0	0	528	
10	0	0	0	0	529	
11	0	0	0	0	529	
12	0	0	0	0	529	
13	0	0	0	0	529	
14	0	0	0	0	530	
15	0	0	0	0	529	
0	0	0	0	0	528	
1	0	0	0	0	528	
2	0	0	0	0	526	
3	0	0	0	0	526	
4	0	0	0	0	524	
5	0	0	0	0	522	
6	0	0	0	0	520	
7	0	0	0	0	519	
8	0	0	0	0	518	
9	0	0	0	0	516	
10	0	0	0	0	515	
11	0	0	0	0	513	
12	0	0	0	0	512	
13	0	0	0	0	512	
14	0	0	0	0	513	
15	0	0	0	0	514	
0	0	0	0	0	513	
1	0	0	0	0	514	
2	0	0	0	0	515	
3	0	0	0	0	515	
4	0	0	0	0	516	
5	0	0	0	0	516	
6	0	0	0	0	515	
7	0	0	0	0	515	
8	0	0	0	0	515	
9	0	0	0	0	514	
10	0	0	0	0	514	
11	0	0	0	0	513	
12	0	0	0	0	512	
13	0	0	0	0	511	
14	0	0	0	0	510	
15	0	0	0	0	510	
0	0	0	0	0	509	
1	0	0	0	0	508	
2	0	0	0	0	508	
3	0	0	0	0	508	
4	0	0	0	0	508	
5	0	0	0	0	508	
6	0	0	0	0	509	
7	0	0	0	0	510	
8	0	0	0	0	510	
9	0	0	0	0	511	
10	0	0	0	0	511	
11	0	0	0	0	512	
12	0	0	0	0	511	
13	0	0	0	0	511	
14	0	0	0	0	511	
15	0	0	0	0	511	
0	0	0	0	0	512	
1	0	0	0	0	511	
2	0	0	0	0	511	
3	0	0	0	0	511	
4	0	0	0	0	511	
5	0	0	0	0	511	
6	0	0	0	0	511	
7	0	0	0	0	512	
8	0	0	0	0	513	
9	0	0	0	0	513	
10	0	0	0	0	512	
11	0	0	0	0	512	
12	0	0	0	0	513	
13	0	0	0	0	513	
14	0	0	0	0	514	
15	0	0	0	0	515	
0	0	0	0	0	514	
1	0	0	0	0	515	
2	0	0	0	0	515	
3	0	0	0	0	515	
4	0	0	0	0	515	
5	0	0	0	0	513	
6	0	0	0	0	512	
7	0	0	0	0	511	
8	0	0	0	0	511	
9	0	0	0	0	511	
10	0	0	0	0	511	
11	0	0	0	0	512	
12	0	0	0	0	513	
13	0	0	0	0	515	
14	0	0	0	0	517	
15	0	0	0	0	521	
0	0	0	0	0	528	
1	0	0	0	0	536	
2	0	0	0	0	545	
3	0	0	0	0	556	
4	0	0	0	0	569	
5	0	0	0	0	582	
6	0	0	0	0	596	
7	0	0	0	0	611	
8	0	0	0	0	625	
9	0	0	0	0	639	
10	0	0	0	0	655	
11	0	0	0	0	672	
12	0	0	0	0	691	
13	0	0	0	0	712	
14	0	0	0	0	733	
15	0	0	0	0	755	
0	0	0	0	0	778	
1	0	0	0	0	801	
2	0	0	0	0	827	
3	0	0	0	0	852	
4	0	0	0	0	878	
5	0	0	0	0	905	
6	0	0	0	0	931	
7	0	0	0	0	959	
8	0	0	0	0	986	
9	0	0	0	0	1011	
10	0	0	0	0	1022	
11	0	0	0	0	1022	
12	0	0	0	0	1022	
13	0	0	0	0	1022	
14	0	0	0	0	1022	
15	0	0	0	0	1022	
0	0	0	0	0	1022	
1	0	0	0	0	1022	
2	0	0	0	0	1011	
3	0	0	0	0	985	
4	0	0	0	0	956	
5	0	0	0	0	921	
6	0	0	0	0	878	
7	0	0	0	0	828	
8	0	0	0	0	774	
9	0	0	0	0	718	
10	0	0	0	0	665	
11	0	0	0	0	616	
12	0	0	0	0	573	
13	0	0	0	0	536	
14	0	0	0	0	503	
15	0	0	0	0	476	
0	0	0	0	0	457	
1	0	0	0	0	443	
2	0	0	0	0	432	
3	0	0	0	0	423	
4	0	0	0	0	416	
5	0	0	0	0	408	
6	0	0	0	0	401	
7	0	0	0	0	396	
8	0	0	0	0	391	
9	0	0	0	0	389	
10	0	0	0	0	387	
11	0	0	0	0	387	
12	0	0	0	0	387	
13	0	0	0	0	388	
14	0	0	0	0	390	
15	0	0	0	0	391	
0	0	0	0	0	391	
1	0	0	0	0	392	
2	0	0	0	0	393	
3	0	0	0	0	396	
4	0	0	0	0	399	
5	0	0	0	0	400	
6	0	0	0	0	402	
7	0	0	0	0	403	
8	0	0	0	0	404	
9	0	0	0	0	403	
10	0	0	0	0	403	
11	0	0	0	0	403	
12	0	0	0	0	404	
13	0	0	0	0	404	
14	0	0	0	0	406	
15	0	0	0	0	406	
0	0	0	0	0	407	
1	0	0	0	0	408	
2	0	0	0	0	407	
3	0	0	0	0	408	
4	0	0	0	0	408	
5	0	0	0	0	409	
6	0	0	0	0	408	
7	0	0	0	0	408	
8	0	0	0	0	409	
9	0	0	0	0	409	
10	0	0	0	0	410	
11	0	0	0	0	411	
12	0	0	0	0	411	
13	0	0	0	0	411	
14	0	0	0	0	412	
15	0	0	0	0	412	
0	0	0	0	0	412	
1	0	0	0	0	414	
2	0	0	0	0	415	
3	0	0	0	0	416	
4	0	0	0	0	417	
5	0	0	0	0	418	
6	0	0	0	0	419	
7	0	0	0	0	420	
8	0	0	0	0	421	
9	0	0	0	0	423	
10	0	0	0	0	425	
11	0	0	0	0	425	
12	0	0	0	0	425	
13	0	0	0	0	428	
14	0	0	0	0	429	
15	0	0	0	0	431	
0	0	0	0	0	432	
1	0	0	0	0	432	
2	0	0	0	0	433	
3	0	0	0	0	433	
4	0	0	0	0	434	
5	0	0	0	0	435	
6	0	0	0	0	436	
7	0	0	0	0	437	
8	0	0	0	0	439	
9	0	0	0	0	441	
10	0	0	0	0	443	
11	0	0	0	0	444	
12	0	0	0	0	444	
13	0	0	0	0	446	
14	0	0	0	0	447	
15	0	0	0	0	447	
0	0	0	0	0	449	
1	0	0	0	0	450	
2	0	0	0	0	451	
3	0	0	0	0	451	
4	0	0	0	0	451	
5	0	0	0	0	453	
6	0	0	0	0	454	
7	0	0	0	0	455	
8	0	0	0	0	457	
9	0	0	0	0	458	
10	0	0	0	0	459	
11	0	0	0	0	460	
12	0	0	0	0	463	
13	0	0	0	0	465	
14	0	0	0	0	467	
15	0	0	0	0	468	
0	0	0	0	0	468	
1	0	0	0	0	469	
2	0	0	0	0	469	
3	0	0	0	0	470	
4	0	0	0	0	471	
5	0	0	0	0	471	
6	0	0	0	0	471	
7	0	0	0	0	472	
8	0	0	0	0	474	
9	0	0	0	0	475	
10	0	0	0	0	476	
11	0	0	0	0	477	
12	0	0	0	0	480	
13	0	0	0	0	481	
14	0	0	0	0	484	
15	0	0	0	0	484	
0	0	0	0	0	484	
1	0	0	0	0	485	
2	0	0	0	0	486	
3	0	0	0	0	488	
4	0	0	0	0	489	
5	0	0	0	0	490	
6	0	0	0	0	490	
7	0	0	0	0	490	
8	0	0	0	0	491	
9	0	0	0	0	492	
10	0	0	0	0	493	
11	0	0	0	0	493	
12	0	0	0	0	493	
13	0	0	0	0	494	
14	0	0	0	0	495	
15	0	0	0	0	496	
0	0	0	0	0	497	
1	0	0	0	0	498	
2	0	0	0	0	499	
3	0	0	0	0	501	
4	0	0	0	0	502	
5	0	0	0	0	503	
6	0	0	0	0	504	
7	0	0	0	0	504	
8	0	0	0	0	505	
9	0	0	0	0	506	
10	0	0	0	0	507	
11	0	0	0	0	507	
12	0	0	0	0	506	
13	0	0	0	0	506	
14	0	0	0	0	507	
15	0	0	0	0	508	
0	0	0	0	0	508	
1	0	0	0	0	510	
2	0	0	0	0	510	
3	0	0	0	0	511	
4	0	0	0	0	512	
5	0	0	0	0	513	
6	0	0	0	0	513	
7	0	0	0	0	513	
8	0	0	0	0	514	
9	0	0	0	0	515	
10	0	0	0	0	516	
11	0	0	0	0	518	
12	0	0	0	0	517	
13	0	0	0	0	519	
14	0	0	0	0	518	
15	0	0	0	0	517	
0	0	0	0	0	518	
1	0	0	0	0	518	
2	0	0	0	0	517	
3	0	0	0	0	517	
4	0	0	0	0	516	
5	0	0	0	0	517	
6	0	0	0	0	518	
7	0	0	0	0	518	
8	0	0	0	0	519	
9	0	0	0	0	519	
10	0	0	0	0	520	
11	0	0	0	0	520	
12	0	0	0	0	520	
13	0	0	0	0	520	
14	0	0	0	0	521	
15	0	0	0	0	522	
0	0	0	0	0	523	
1	0	0	0	0	522	
2	0	0	0	0	522	
3	0	0	0	0	522	
4	0	0	0	0	523	
5	0	0	0	0	523	
6	0	0	0	0	523	
7	0	0	0	0	524	
8	0	0	0	0	524	
9	0	0	0	0	524	
10	0	0	0	0	525	
11	0	0	0	0	525	
12	0	0	0	0	526	
13	0	0	0	0	527	
14	0	0	0	0	530	
15	0	0	0	0	531	
0	0	0	0	0	532	
1	0	0	0	0	532	
2	0	0	0	0	532	
3	0	0	0	0	531	
4	0	0	0	0	530	
5	0	0	0	0	529	
6	0	0	0	0	528	
7	0	0	0	0	527	
8	0	0	0	0	526	
9	0	0	0	0	526	
10	0	0	0	0	526	
11	0	0	0	0	526	
12	0	0	0	0	526	
13	0	0	0	0	526	
14	0	0	0	0	526	
15	0	0	0	0	526	
0	0	0	0	0	527	
1	0	0	0	0	527	
2	0	0	0	0	527	
3	0	0	0	0	527	
4	0	0	0	0	529	
5	0	0	0	0	529	
6	0	0	0	0	529	
7	0	0	0	0	530	
8	0	0	0	0	529	
9	0	0	0	0	528	
10	0	0	0	0	528	
11	0	0	0	0	527	
12	0	0	0	0	527	
13	0	0	0	0	526	
14	0	0	0	0	526	
15	0	0	0	0	526	
0	0	0	0	0	525	
1	0	0	0	0	525	
2	0	0	0	0	525	
3	0	0	0	0	525	
4	0	0	0	0	526	
5	0	0	0	0	526	
6	0	0	0	0	526	
7	0	0	0	0	526	
8	0	0	0	0	526	
9	0	0	0	0	527	
10	0	0	0	0	527	
11	0	0	0	0	527	
12	0	0	0	0	526	
13	0	0	0	0	526	
14	0	0	0	0	524	
15	0	0	0	0	523	
0	0	0	0	0	521	
1	0	0	0	0	520	
2	0	0	0	0	519	
3	0	0	0	0	517	
4	0	0	0	0	515	
5	0	0	0	0	514	
6	0	0	0	0	513	
7	0	0	0	0	512	
8	0	0	0	0	512	
9	0	0	0	0	511	
10	0	0	0	0	510	
11	0	0	0	0	508	
12	0	0	0	0	507	
13	0	0	0	0	506	
14	0	0	0	0	505	
15	0	0	0	0	504	
0	0	0	0	0	504	
1	0	0	0	0	504	
2	0	0	0	0	503	
3	0	0	0	0	501	
4	0	0	0	0	500	
5	0	0	0	0	499	
6	0	0	0	0	497	
7	0	0	0	0	496	
8	0	0	0	0	494	
9	0	0	0	0	492	
10	0	0	0	0	489	
11	0	0	0	0	487	
12	0	0	0	0	486	
13	0	0	0	0	485	
14	0	0	0	0	484	
15	0	0	0	0	482	
0	0	0	0	0	481	
1	0	0	0	0	480	
2	0	0	0	0	479	
3	0	0	0	0	479	
4	0	0	0	0	477	
5	0	0	0	0	475	
6	0	0	0	0	473	
7	0	0	0	0	471	
8	0	0	0	0	470	
9	0	0	0	0	468	
10	0	0	0	0	466	
11	0	0	0	0	465	
12	0	0	0	0	464	
13	0	0	0	0	463	
14	0	0	0	0	462	
15	0	0	0	0	462	
0	0	0	0	0	463	
1	0	0	0	0	462	
2	0	0	0	0	462	
3	0	0	0	0	462	
4	0	0	0	0	461	
5	0	0	0	0	460	
6	0	0	0	0	460	
7	0	0	0	0	460	
8	0	0	0	0	460	
9	0	0	0	0	461	
10	0	0	0	0	460	
11	0	0	0	0	460	
12	0	0	0	0	460	
13	0	0	0	0	460	
14	0	0	0	0	460	
15	0	0	0	0	461	
0	0	0	0	0	460	
1	0	0	0	0	458	
2	0	0	0	0	457	
3	0	0	0	0	458	
4	0	0	0	0	458	
5	0	0	0	0	459	
6	0	0	0	0	459	
7	0	0	0	0	459	
8	0	0	0	0	460	
9	0	0	0	0	461	
10	0	0	0	0	462	
11	0	0	0	0	463	
12	0	0	0	0	463	
13	0	0	0	0	463	
14	0	0	0	0	463	
15	0	0	0	0	464	
0	0	0	0	0	465	
1	0	0	0	0	465	
2	0	0	0	0	465	
3	0	0	0	0	464	
4	0	0	0	0	464	
5	0	0	0	0	464	
6	0	0	0	0	464	
7	0	0	0	0	467	
8	0	0	0	0	468	
9	0	0	0	0	471	
10	0	0	0	0	472	
11	0	0	0	0	473	
12	0	0	0	0	473	
13	0	0	0	0	473	
14	0	0	0	0	474	
15	0	0	0	0	474	
0	0	0	0	0	474	
1	0	0	0	0	475	
2	0	0	0	0	475	
3	0	0	0	0	475	
4	0	0	0	0	475	
5	0	0	0	0	473	
6	0	0	0	0	473	
7	0	0	0	0	473	
8	0	0	0	0	474	
9	0	0	0	0	475	
10	0	0	0	0	475	
11	0	0	0	0	475	
12	0	0	0	0	476	
13	0	0	0	0	476	
14	0	0	0	0	478	
15	0	0	0	0	479	
0	0	0	0	0	481	
1	0	0	0	0	483	
2	0	0	0	0	484	
3	0	0	0	0	485	
4	0	0	0	0	484	
5	0	0	0	0	485	
6	0	0	0	0	486	
7	0	0	0	0	486	
8	0	0	0	0	486	
9	0	0	0	0	486	
10	0	0	0	0	487	
11	0	0	0	0	487	
12	0	0	0	0	488	
13	0	0	0	0	489	
14	0	0	0	0	489	
15	0	0	0	0	491	
0	0	0	0	0	492	
1	0	0	0	0	494	
2	0	0	0	0	495	
3	0	0	0	0	496	
4	0	0	0	0	497	
5	0	0	0	0	499	
6	0	0	0	0	499	
7	0	0	0	0	500	
8	0	0	0	0	500	
9	0	0	0	0	499	
10	0	0	0	0	498	
11	0	0	0	0	499	
12	0	0	0	0	500	
13	0	0	0	0	500	
14	0	0	0	0	501	
15	0	0	0	0	502	
0	0	0	0	0	502	
1	0	0	0	0	503	
2	0	0	0	0	503	
3	0	0	0	0	504	
4	0	0	0	0	505	
5	0	0	0	0	506	
6	0	0	0	0	508	
7	0	0	0	0	508	
8	0	0	0	0	510	
9	0	0	0	0	510	
10	0	0	0	0	511	
11	0	0	0	0	511	
12	0	0	0	0	510	
13	0	0	0	0	510	
14	0	0	0	0	509	
15	0	0	0	0	508	
0	0	0	0	0	508	
1	0	0	0	0	508	
2	0	0	0	0	507	
3	0	0	0	0	507	
4	0	0	0	0	506	
5	0	0	0	0	506	
6	0	0	0	0	505	
7	0	0	0	0	506	
8	0	0	0	0	506	
9	0	0	0	0	507	
10	0	0	0	0	508	
11	0	0	0	0	508	
12	0	0	0	0	510	
13	0	0	0	0	511	
14	0	0	0	0	512	
15	0	0	0	0	513	
0	0	0	0	0	515	
1	0	0	0	0	515	
2	0	0	0	0	515	
3	0	0	0	0	515	
4	0	0	0	0	513	
5	0	0	0	0	511	
6	0	0	0	0	509	
7	0	0	0	0	507	
8	0	0	0	0	506	
9	0	0	0	0	507	
10	0	0	0	0	507	
11	0	0	0	0	507	
12	0	0	0	0	508	
13	0	0	0	0	509	
14	0	0	0	0	510	
15	0	0	0	0	509	
0	0	0	0	0	510	
1	0	0	0	0	510	
2	0	0	0	0	510	
3	0	0	0	0	510	
4	0	0	0	0	508	
5	0	0	0	0	508	
6	0	0	0	0	507	
7	0	0	0	0	505	
8	0	0	0	0	505	
9	0	0	0	0	505	
10	0	0	0	0	504	
11	0	0	0	0	504	
12	0	0	0	0	504	
13	0	0	0	0	505	
14	0	0	0	0	506	
15	0	0	0	0	508	
0	0	0	0	0	509	
1	0	0	0	0	508	
2	0	0	0	0	509	
3	0	0	0	0	509	
4	0	0	0	0	509	
5	0	0	0	0	510	
6	0	0	0	0	511	
7	0	0	0	0	511	
8	0	0	0	0	510	
9	0	0	0	0	510	
10	0	0	0	0	508	
11	0	0	0	0	507	
12	0	0	0	0	505	
13	0	0	0	0	504	
14	0	0	0	0	503	
15	0	0	0	0	503	
0	0	0	0	0	503	
1	0	0	0	0	503	
2	0	0	0	0	502	
3	0	0	0	0	503	
4	0	0	0	0	504	
5	0	0	0	0	504	
6	0	0	0	0	504	
7	0	0	0	0	504	
8	0	0	0	0	504	
9	0	0	0	0	504	
10	0	0	0	0	504	
11	0	0	0	0	505	
12	0	0	0	0	504	
13	0	0	0	0	504	
14	0	0	0	0	503	
15	0	0	0	0	502	
0	0	0	0	0	503	
1	0	0	0	0	504	
2	0	0	0	0	504	
3	0	0	0	0	504	
4	0	0	0	0	503	
5	0	0	0	0	504	
6	0	0	0	0	504	
7	0	0	0	0	505	
8	0	0	0	0	505	
9	0	0	0	0	505	
10	0	0	0	0	507	
11	0	0	0	0	508	
12	0	0	0	0	508	
13	0	0	0	0	508	
14	0	0	0	0	508	
15	0	0	0	0	507	
0	0	0	0	0	508	
1	0	0	0	0	507	
2	0	0	0	0	507	
3	0	0	0	0	506	
4	0	0	0	0	507	
5	0	0	0	0	508	
6	0	0	0	0	510	
7	0	0	0	0	511	
8	0	0	0	0	511	
9	0	0	0	0	511	
10	0	0	0	0	512	
11	0	0	0	0	512	
12	0	0	0	0	513	
13	0	0	0	0	513	
14	0	0	0	0	514	
15	0	0	0	0	514	
0	0	0	0	0	514	
1	0	0	0	0	515	
2	0	0	0	0	515	
3	0	0	0	0	516	
4	0	0	0	0	515	
5	0	0	0	0	513	
6	0	0	0	0	513	
7	0	0	0	0	512	
8	0	0	0	0	512	
9	0	0	0	0	511	
10	0	0	0	0	511	
11	0	0	0	0	511	
12	0	0	0	0	510	
13	0	0	0	0	511	
14	0	0	0	0	510	
15	0	0	0	0	511	
0	0	0	0	0	511	
1	0	0	0	0	511	
2	0	0	0	0	511	
3	0	0	0	0	511	
4	0	0	0	0	512	
5	0	0	0	0	512	
6	0	0	0	0	512	
7	0	0	0	0	512	
8	0	0	0	0	512	
9	0	0	0	0	512	
10	0	0	0	0	512	
11	0	0	0	0	512	
12	0	0	0	0	512	
13	0	0	0	0	512	
14	0	0	0	0	511	
15	0	0	0	0	511	
0	0	0	0	0	511	
1	0	0	0	0	510	
2	0	0	0	0	509	
3	0	0	0	0	510	
4	0	0	0	0	510	
5	0	0	0	0	511	
6	0	0	0	0	512	
7	0	0	0	0	513	
8	0	0	0	0	515	
9	0	0	0	0	517	
10	0	0	0	0	518	
11	0	0	0	0	519	
12	0	0	0	0	519	
13	0	0	0	0	519	
14	0	0	0	0	518	
15	0	0	0	0	518	
0	0	0	0	0	518	
1	0	0	0	0	516	
2	0	0	0	0	515	
3	0	0	0	0	515	
4	0	0	0	0	515	
5	0	0	0	0	516	
6	0	0	0	0	516	
7	0	0	0	0	518	
8	0	0	0	0	519	
9	0	0	0	0	520	
10	0	0	0	0	521	
11	0	0	0	0	521	
12	0	0	0	0	521	
13	0	0	0	0	521	
14	0	0	0	0	522	
15	0	0	0	0	521	
0	0	0	0	0	520	
1	0	0	0	0	519	
2	0	0	0	0	519	
3	0	0	0	0	519	
4	0	0	0	0	519	
5	0	0	0	0	518	
6	0	0	0	0	518	
7	0	0	0	0	519	
8	0	0	0	0	519	
9	0	0	0	0	519	
10	0	0	0	0	519	
11	0	0	0	0	520	
12	0	0	0	0	521	
13	0	0	0	0	521	
14	0	0	0	0	523	
15	0	0	0	0	524	
0	0	0	0	0	525	
1	0	0	0	0	525	
2	0	0	0	0	525	
3	0	0	0	0	524	
4	0	0	0	0	525	
5	0	0	0	0	525	
6	0	0	0	0	526	
7	0	0	0	0	524	
8	0	0	0	0	524	
9	0	0	0	0	524	
10	0	0	0	0	524	
11	0	0	0	0	524	
12	0	0	0	0	524	
13	0	0	0	0	524	
14	0	0	0	0	523	
15	0	0	0	0	523	
0	0	0	0	0	524	
1	0	0	0	0	523	
2	0	0	0	0	523	
3	0	0	0	0	523	
4	0	0	0	0	524	
5	0	0	0	0	524	
6	0	0	0	0	524	
7	0	0	0	0	524	
8	0	0	0	0	524	
9	0	0	0	0	523	
10	0	0	0	0	522	
11	0	0	0	0	521	
12	0	0	0	0	521	
13	0	0	0	0	520	
14	0	0	0	0	520	
15	0	0	0	0	519	
0	0	0	0	0	519	
1	0	0	0	0	518	
2	0	0	0	0	518	
3	0	0	0	0	518	
4	0	0	0	0	519	
5	0	0	0	0	519	
6	0	0	0	0	519	
7	0	0	0	0	519	
8	0	0	0	0	520	
9	0	0	0	0	521	
10	0	0	0	0	522	
11	0	0	0	0	521	
12	0	0	0	0	520	
13	0	0	0	0	519	
14	0	0	0	0	519	
15	0	0	0	0	518	
0	0	0	0	0	518	
1	0	0	0	0	516	
2	0	0	0	0	516	
3	0	0	0	0	517	
4	0	0	0	0	518	
5	0	0	0	0	518	
6	0	0	0	0	519	
7	0	0	0	0	519	
8	0	0	0	0	519	
9	0	0	0	0	520	
10	0	0	0	0	521	
11	0	0	0	0	523	
12	0	0	0	0	523	
13	0	0	0	0	524	
14	0	0	0	0	525	
15	0	0	0	0	524	
0	0	0	0	0	524	
1	0	0	0	0	523	
2	0	0	0	0	521	
3	0	0	0	0	519	
4	0	0	0	0	519	
5	0	0	0	0	518	
6	0	0	0	0	517	
7	0	0	0	0	517	
8	0	0	0	0	517	
9	0	0	0	0	517	
10	0	0	0	0	517	
11	0	0	0	0	518	
12	0	0	0	0	516	
13	0	0	0	0	516	
14	0	0	0	0	516	
15	0	0	0	0	518	
0	0	0	0	0	519	
1	0	0	0	0	519	
2	0	0	0	0	520	
3	0	0	0	0	522	
4	0	0	0	0	522	
5	0	0	0	0	521	
6	0	0	0	0	521	
7	0	0	0	0	521	
8	0	0	0	0	521	
9	0	0	0	0	522	
10	0	0	0	0	523	
11	0	0	0	0	524	
12	0	0	0	0	523	
13	0	0	0	0	522	
14	0	0	0	0	521	
15	0	0	0	0	522	
0	0	0	0	0	523	
1	0	0	0	0	524	
2	0	0	0	0	525	
3	0	0	0	0	525	
4	0	0	0	0	526	
5	0	0	0	0	527	
6	0	0	0	0	527	
7	0	0	0	0	527	
8	0	0	0	0	526	
9	0	0	0	0	525	
10	0	0	0	0	525	
11	0	0	0	0	526	
12	0	0	0	0	526	
13	0	0	0	0	525	
14	0	0	0	0	525	
15	0	0	0	0	524	
0	0	0	0	0	523	
1	0	0	0	0	524	
2	0	0	0	0	525	
3	0	0	0	0	528	
4	0	0	0	0	531	
5	0	0	0	0	534	
6	0	0	0	0	536	
7	0	0	0	0	538	
8	0	0	0	0	539	
9	0	0	0	0	539	
10	0	0	0	0	537	
11	0	0	0	0	536	
12	0	0	0	0	532	
13	0	0	0	0	529	
14	0	0	0	0	526	
15	0	0	0	0	523	
0	0	0	0	0	521	
1	0	0	0	0	519	
2	0	0	0	0	518	
3	0	0	0	0	516	
4	0	0	0	0	515	
5	0	0	0	0	515	
6	0	0	0	0	515	
7	0	0	0	0	517	
8	0	0	0	0	518	
9	0	0	0	0	519	
10	0	0	0	0	519	
11	0	0	0	0	520	
12	0	0	0	0	521	
13	0	0	0	0	523	
14	0	0	0	0	524	
15	0	0	0	0	525	
0	0	0	0	0	526	
1	0	0	0	0	526	
2	0	0	0	0	527	
3	0	0	0	0	525	
4	0	0	0	0	524	
5	0	0	0	0	523	
6	0	0	0	0	521	
7	0	0	0	0	518	
8	0	0	0	0	515	
9	0	0	0	0	514	
10	0	0	0	0	511	
11	0	0	0	0	510	
12	0	0	0	0	509	
13	0	0	0	0	508	
14	0	0	0	0	508	
15	0	0	0	0	508	
0	0	0	0	0	508	
1	0	0	0	0	508	
2	0	0	0	0	508	
3	0	0	0	0	508	
4	0	0	0	0	508	
5	0	0	0	0	507	
6	0	0	0	0	508	
7	0	0	0	0	508	
8	0	0	0	0	508	
9	0	0	0	0	508	
10	0	0	0	0	506	
11	0	0	0	0	505	
12	0	0	0	0	505	
13	0	0	0	0	505	
14	0	0	0	0	505	
15	0	0	0	0	507	
0	0	0	0	0	507	
1	0	0	0	0	507	
2	0	0	0	0	507	
3	0	0	0	0	506	
4	0	0	0	0	506	
5	0	0	0	0	507	
6	0	0	0	0	506	
7	0	0	0	0	505	
8	0	0	0	0	505	
9	0	0	0	0	504	
10	0	0	0	0	504	
11	0	0	0	0	503	
12	0	0	0	0	503	
13	0	0	0	0	503	
14	0	0	0	0	503	
15	0	0	0	0	503	
0	0	0	0	0	503	
1	0	0	0	0	503	
2	0	0	0	0	503	
3	0	0	0	0	504	
4	0	0	0	0	505	
5	0	0	0	0	506	
6	0	0	0	0	507	
7	0	0	0	0	509	
8	0	0	0	0	511	
9	0	0	0	0	511	
10	0	0	0	0	512	
11	0	0	0	0	513	
12	0	0	0	0	513	
13	0	0	0	0	512	
14	0	0	0	0	512	
15	0	0	0	0	512	
0	0	0	0	0	511	
1	0	0	0	0	510	
2	0	0	0	0	510	
3	0	0	0	0	510	
4	0	0	0	0	511	
5	0	0	0	0	512	
6	0	0	0	0	513	
7	0	0	0	0	514	
8	0	0	0	0	515	
9	0	0	0	0	515	
10	0	0	0	0	516	
11	0	0	0	0	515	
12	0	0	0	0	515	
13	0	0	0	0	514	
14	0	0	0	0	513	
15	0	0	0	0	513	
0	0	0	0	0	513	
1	0	0	0	0	514	
