# OpenSignals Text File Format. Version 1
# {"98:D3:41:FE:2E:A0": {"position": 0, "device": "bitalino_rev", "device name": "98:D3:41:FE:2E:A0", "device connection": "BTH98:D3:41:FE:2E:A0", "sampling rate": 1000, "resolution": [4, 1, 1, 1, 1, 10], "firmware version": 1282, "comments": "", "keywords": "", "mode": 0, "sync interval": 2, "date": "2025-4-10", "time": "11:26:21.331", "channels": [2], "sensor": ["RAW"], "label": ["A2"], "column": ["nSeq", "I1", "I2", "O1", "O2", "A2"], "special": [{}], "digital IO": [0, 0, 1, 1], "convertedValues": 0}}
# EndOfHeader
0	0	0	0	0	442	
1	0	0	0	0	444	
2	0	0	0	0	445	
3	0	0	0	0	448	
4	0	0	0	0	453	
5	0	0	0	0	459	
6	0	0	0	0	464	
7	0	0	0	0	468	
8	0	0	0	0	472	
9	0	0	0	0	476	
10	0	0	0	0	478	
11	0	0	0	0	478	
12	0	0	0	0	478	
13	0	0	0	0	478	
14	0	0	0	0	480	
15	0	0	0	0	481	
0	0	0	0	0	483	
1	0	0	0	0	483	
2	0	0	0	0	484	
3	0	0	0	0	483	
4	0	0	0	0	484	
5	0	0	0	0	485	
6	0	0	0	0	485	
7	0	0	0	0	485	
8	0	0	0	0	486	
9	0	0	0	0	488	
10	0	0	0	0	489	
11	0	0	0	0	491	
12	0	0	0	0	494	
13	0	0	0	0	497	
14	0	0	0	0	500	
15	0	0	0	0	502	
0	0	0	0	0	504	
1	0	0	0	0	507	
2	0	0	0	0	511	
3	0	0	0	0	513	
4	0	0	0	0	514	
5	0	0	0	0	514	
6	0	0	0	0	514	
7	0	0	0	0	512	
8	0	0	0	0	511	
9	0	0	0	0	509	
10	0	0	0	0	508	
11	0	0	0	0	506	
12	0	0	0	0	505	
13	0	0	0	0	504	
14	0	0	0	0	504	
15	0	0	0	0	503	
0	0	0	0	0	504	
1	0	0	0	0	502	
2	0	0	0	0	502	
3	0	0	0	0	501	
4	0	0	0	0	499	
5	0	0	0	0	497	
6	0	0	0	0	495	
7	0	0	0	0	493	
8	0	0	0	0	492	
9	0	0	0	0	491	
10	0	0	0	0	491	
11	0	0	0	0	491	
12	0	0	0	0	492	
13	0	0	0	0	492	
14	0	0	0	0	492	
15	0	0	0	0	494	
0	0	0	0	0	495	
1	0	0	0	0	496	
2	0	0	0	0	497	
3	0	0	0	0	498	
4	0	0	0	0	500	
5	0	0	0	0	502	
6	0	0	0	0	504	
7	0	0	0	0	505	
8	0	0	0	0	506	
9	0	0	0	0	508	
10	0	0	0	0	509	
11	0	0	0	0	509	
12	0	0	0	0	508	
13	0	0	0	0	509	
14	0	0	0	0	510	
15	0	0	0	0	510	
0	0	0	0	0	512	
1	0	0	0	0	513	
2	0	0	0	0	515	
3	0	0	0	0	518	
4	0	0	0	0	519	
5	0	0	0	0	520	
6	0	0	0	0	522	
7	0	0	0	0	523	
8	0	0	0	0	524	
9	0	0	0	0	526	
10	0	0	0	0	527	
11	0	0	0	0	528	
12	0	0	0	0	528	
13	0	0	0	0	530	
14	0	0	0	0	531	
15	0	0	0	0	531	
0	0	0	0	0	531	
1	0	0	0	0	531	
2	0	0	0	0	531	
3	0	0	0	0	531	
4	0	0	0	0	531	
5	0	0	0	0	531	
6	0	0	0	0	532	
7	0	0	0	0	533	
8	0	0	0	0	532	
9	0	0	0	0	532	
10	0	0	0	0	533	
11	0	0	0	0	532	
12	0	0	0	0	533	
13	0	0	0	0	534	
14	0	0	0	0	535	
15	0	0	0	0	536	
0	0	0	0	0	536	
1	0	0	0	0	536	
2	0	0	0	0	537	
3	0	0	0	0	539	
4	0	0	0	0	541	
5	0	0	0	0	543	
6	0	0	0	0	543	
7	0	0	0	0	543	
8	0	0	0	0	543	
9	0	0	0	0	543	
10	0	0	0	0	542	
11	0	0	0	0	543	
12	0	0	0	0	542	
13	0	0	0	0	543	
14	0	0	0	0	542	
15	0	0	0	0	542	
0	0	0	0	0	542	
1	0	0	0	0	541	
2	0	0	0	0	542	
3	0	0	0	0	543	
4	0	0	0	0	543	
5	0	0	0	0	543	
6	0	0	0	0	543	
7	0	0	0	0	543	
8	0	0	0	0	543	
9	0	0	0	0	543	
10	0	0	0	0	543	
11	0	0	0	0	544	
12	0	0	0	0	544	
13	0	0	0	0	543	
14	0	0	0	0	543	
15	0	0	0	0	542	
0	0	0	0	0	541	
1	0	0	0	0	540	
2	0	0	0	0	539	
3	0	0	0	0	538	
4	0	0	0	0	538	
5	0	0	0	0	537	
6	0	0	0	0	536	
7	0	0	0	0	536	
8	0	0	0	0	535	
9	0	0	0	0	535	
10	0	0	0	0	535	
11	0	0	0	0	536	
12	0	0	0	0	536	
13	0	0	0	0	536	
14	0	0	0	0	536	
15	0	0	0	0	535	
0	0	0	0	0	534	
1	0	0	0	0	534	
2	0	0	0	0	534	
3	0	0	0	0	533	
4	0	0	0	0	531	
5	0	0	0	0	530	
6	0	0	0	0	529	
7	0	0	0	0	529	
8	0	0	0	0	530	
9	0	0	0	0	530	
10	0	0	0	0	530	
11	0	0	0	0	531	
12	0	0	0	0	531	
13	0	0	0	0	530	
14	0	0	0	0	529	
15	0	0	0	0	528	
0	0	0	0	0	526	
1	0	0	0	0	525	
2	0	0	0	0	524	
3	0	0	0	0	523	
4	0	0	0	0	523	
5	0	0	0	0	522	
6	0	0	0	0	521	
7	0	0	0	0	521	
8	0	0	0	0	520	
9	0	0	0	0	519	
10	0	0	0	0	518	
11	0	0	0	0	517	
12	0	0	0	0	516	
13	0	0	0	0	515	
14	0	0	0	0	515	
15	0	0	0	0	515	
0	0	0	0	0	516	
1	0	0	0	0	515	
2	0	0	0	0	515	
3	0	0	0	0	515	
4	0	0	0	0	514	
5	0	0	0	0	513	
6	0	0	0	0	513	
7	0	0	0	0	512	
8	0	0	0	0	512	
9	0	0	0	0	512	
10	0	0	0	0	512	
11	0	0	0	0	512	
12	0	0	0	0	512	
13	0	0	0	0	512	
14	0	0	0	0	511	
15	0	0	0	0	511	
0	0	0	0	0	511	
1	0	0	0	0	510	
2	0	0	0	0	510	
3	0	0	0	0	510	
4	0	0	0	0	510	
5	0	0	0	0	509	
6	0	0	0	0	508	
7	0	0	0	0	508	
8	0	0	0	0	508	
9	0	0	0	0	508	
10	0	0	0	0	509	
11	0	0	0	0	508	
12	0	0	0	0	508	
13	0	0	0	0	508	
14	0	0	0	0	508	
15	0	0	0	0	508	
0	0	0	0	0	507	
1	0	0	0	0	508	
2	0	0	0	0	508	
3	0	0	0	0	508	
4	0	0	0	0	508	
5	0	0	0	0	508	
6	0	0	0	0	508	
7	0	0	0	0	508	
8	0	0	0	0	510	
9	0	0	0	0	511	
10	0	0	0	0	512	
11	0	0	0	0	513	
12	0	0	0	0	513	
13	0	0	0	0	513	
14	0	0	0	0	515	
15	0	0	0	0	515	
0	0	0	0	0	515	
1	0	0	0	0	516	
2	0	0	0	0	516	
3	0	0	0	0	516	
4	0	0	0	0	515	
5	0	0	0	0	514	
6	0	0	0	0	514	
7	0	0	0	0	514	
8	0	0	0	0	515	
9	0	0	0	0	515	
10	0	0	0	0	516	
11	0	0	0	0	518	
12	0	0	0	0	519	
13	0	0	0	0	520	
14	0	0	0	0	521	
15	0	0	0	0	522	
0	0	0	0	0	523	
1	0	0	0	0	522	
2	0	0	0	0	522	
3	0	0	0	0	523	
4	0	0	0	0	523	
5	0	0	0	0	524	
6	0	0	0	0	524	
7	0	0	0	0	524	
8	0	0	0	0	523	
9	0	0	0	0	521	
10	0	0	0	0	522	
11	0	0	0	0	523	
12	0	0	0	0	524	
13	0	0	0	0	523	
14	0	0	0	0	523	
15	0	0	0	0	524	
0	0	0	0	0	525	
1	0	0	0	0	526	
2	0	0	0	0	527	
3	0	0	0	0	527	
4	0	0	0	0	527	
5	0	0	0	0	527	
6	0	0	0	0	528	
7	0	0	0	0	529	
8	0	0	0	0	530	
9	0	0	0	0	531	
10	0	0	0	0	530	
11	0	0	0	0	530	
12	0	0	0	0	530	
13	0	0	0	0	530	
14	0	0	0	0	530	
15	0	0	0	0	531	
0	0	0	0	0	532	
1	0	0	0	0	533	
2	0	0	0	0	533	
3	0	0	0	0	534	
4	0	0	0	0	535	
5	0	0	0	0	536	
6	0	0	0	0	538	
7	0	0	0	0	539	
8	0	0	0	0	540	
9	0	0	0	0	541	
10	0	0	0	0	543	
11	0	0	0	0	544	
12	0	0	0	0	547	
13	0	0	0	0	550	
14	0	0	0	0	551	
15	0	0	0	0	553	
0	0	0	0	0	552	
1	0	0	0	0	552	
2	0	0	0	0	551	
3	0	0	0	0	550	
4	0	0	0	0	549	
5	0	0	0	0	548	
6	0	0	0	0	547	
7	0	0	0	0	547	
8	0	0	0	0	546	
9	0	0	0	0	545	
10	0	0	0	0	546	
11	0	0	0	0	547	
12	0	0	0	0	547	
13	0	0	0	0	549	
14	0	0	0	0	551	
15	0	0	0	0	552	
0	0	0	0	0	553	
1	0	0	0	0	555	
2	0	0	0	0	555	
3	0	0	0	0	556	
4	0	0	0	0	557	
5	0	0	0	0	558	
6	0	0	0	0	559	
7	0	0	0	0	559	
8	0	0	0	0	560	
9	0	0	0	0	560	
10	0	0	0	0	561	
11	0	0	0	0	561	
12	0	0	0	0	561	
13	0	0	0	0	561	
14	0	0	0	0	560	
15	0	0	0	0	559	
0	0	0	0	0	557	
1	0	0	0	0	556	
2	0	0	0	0	554	
3	0	0	0	0	552	
4	0	0	0	0	551	
5	0	0	0	0	551	
6	0	0	0	0	549	
7	0	0	0	0	548	
8	0	0	0	0	547	
9	0	0	0	0	545	
10	0	0	0	0	544	
11	0	0	0	0	543	
12	0	0	0	0	543	
13	0	0	0	0	541	
14	0	0	0	0	540	
15	0	0	0	0	540	
0	0	0	0	0	540	
1	0	0	0	0	540	
2	0	0	0	0	540	
3	0	0	0	0	538	
4	0	0	0	0	536	
5	0	0	0	0	535	
6	0	0	0	0	535	
7	0	0	0	0	534	
8	0	0	0	0	532	
9	0	0	0	0	532	
10	0	0	0	0	531	
11	0	0	0	0	531	
12	0	0	0	0	529	
13	0	0	0	0	528	
14	0	0	0	0	528	
15	0	0	0	0	527	
0	0	0	0	0	527	
1	0	0	0	0	526	
2	0	0	0	0	527	
3	0	0	0	0	526	
4	0	0	0	0	524	
5	0	0	0	0	524	
6	0	0	0	0	524	
7	0	0	0	0	524	
8	0	0	0	0	524	
9	0	0	0	0	523	
10	0	0	0	0	523	
11	0	0	0	0	522	
12	0	0	0	0	522	
13	0	0	0	0	521	
14	0	0	0	0	521	
15	0	0	0	0	521	
0	0	0	0	0	521	
1	0	0	0	0	523	
2	0	0	0	0	523	
3	0	0	0	0	523	
4	0	0	0	0	524	
5	0	0	0	0	523	
6	0	0	0	0	523	
7	0	0	0	0	523	
8	0	0	0	0	523	
9	0	0	0	0	523	
10	0	0	0	0	523	
11	0	0	0	0	523	
12	0	0	0	0	523	
13	0	0	0	0	523	
14	0	0	0	0	524	
15	0	0	0	0	524	
0	0	0	0	0	523	
1	0	0	0	0	522	
2	0	0	0	0	522	
3	0	0	0	0	520	
4	0	0	0	0	519	
5	0	0	0	0	518	
6	0	0	0	0	518	
7	0	0	0	0	516	
8	0	0	0	0	517	
9	0	0	0	0	518	
10	0	0	0	0	518	
11	0	0	0	0	520	
12	0	0	0	0	522	
13	0	0	0	0	526	
14	0	0	0	0	532	
15	0	0	0	0	541	
0	0	0	0	0	549	
1	0	0	0	0	559	
2	0	0	0	0	570	
3	0	0	0	0	582	
4	0	0	0	0	595	
5	0	0	0	0	609	
6	0	0	0	0	622	
7	0	0	0	0	636	
8	0	0	0	0	652	
9	0	0	0	0	671	
10	0	0	0	0	691	
11	0	0	0	0	713	
12	0	0	0	0	736	
13	0	0	0	0	760	
14	0	0	0	0	783	
15	0	0	0	0	807	
0	0	0	0	0	831	
1	0	0	0	0	858	
2	0	0	0	0	885	
3	0	0	0	0	911	
4	0	0	0	0	938	
5	0	0	0	0	964	
6	0	0	0	0	989	
7	0	0	0	0	1009	
8	0	0	0	0	1021	
9	0	0	0	0	1022	
10	0	0	0	0	1022	
11	0	0	0	0	1022	
12	0	0	0	0	1022	
13	0	0	0	0	1022	
14	0	0	0	0	1022	
15	0	0	0	0	1013	
0	0	0	0	0	994	
1	0	0	0	0	969	
2	0	0	0	0	939	
3	0	0	0	0	900	
4	0	0	0	0	854	
5	0	0	0	0	804	
6	0	0	0	0	750	
7	0	0	0	0	698	
8	0	0	0	0	651	
9	0	0	0	0	607	
10	0	0	0	0	570	
11	0	0	0	0	539	
12	0	0	0	0	514	
13	0	0	0	0	493	
14	0	0	0	0	477	
15	0	0	0	0	465	
0	0	0	0	0	456	
1	0	0	0	0	449	
2	0	0	0	0	441	
3	0	0	0	0	432	
4	0	0	0	0	423	
5	0	0	0	0	417	
6	0	0	0	0	412	
7	0	0	0	0	409	
8	0	0	0	0	407	
9	0	0	0	0	405	
10	0	0	0	0	403	
11	0	0	0	0	401	
12	0	0	0	0	400	
13	0	0	0	0	400	
14	0	0	0	0	400	
15	0	0	0	0	401	
0	0	0	0	0	403	
1	0	0	0	0	405	
2	0	0	0	0	407	
3	0	0	0	0	409	
4	0	0	0	0	410	
5	0	0	0	0	411	
6	0	0	0	0	412	
7	0	0	0	0	412	
8	0	0	0	0	413	
9	0	0	0	0	414	
10	0	0	0	0	414	
11	0	0	0	0	413	
12	0	0	0	0	413	
13	0	0	0	0	412	
14	0	0	0	0	412	
15	0	0	0	0	412	
0	0	0	0	0	412	
1	0	0	0	0	411	
2	0	0	0	0	411	
3	0	0	0	0	412	
4	0	0	0	0	412	
5	0	0	0	0	413	
6	0	0	0	0	413	
7	0	0	0	0	413	
8	0	0	0	0	413	
9	0	0	0	0	414	
10	0	0	0	0	415	
11	0	0	0	0	414	
12	0	0	0	0	415	
13	0	0	0	0	415	
14	0	0	0	0	416	
15	0	0	0	0	417	
0	0	0	0	0	419	
1	0	0	0	0	420	
2	0	0	0	0	422	
3	0	0	0	0	423	
4	0	0	0	0	424	
5	0	0	0	0	425	
6	0	0	0	0	426	
7	0	0	0	0	426	
8	0	0	0	0	427	
9	0	0	0	0	428	
10	0	0	0	0	428	
11	0	0	0	0	428	
12	0	0	0	0	428	
13	0	0	0	0	428	
14	0	0	0	0	429	
15	0	0	0	0	430	
0	0	0	0	0	433	
1	0	0	0	0	434	
2	0	0	0	0	435	
3	0	0	0	0	434	
4	0	0	0	0	435	
5	0	0	0	0	435	
6	0	0	0	0	436	
7	0	0	0	0	436	
8	0	0	0	0	436	
9	0	0	0	0	436	
10	0	0	0	0	438	
11	0	0	0	0	440	
12	0	0	0	0	442	
13	0	0	0	0	445	
14	0	0	0	0	446	
15	0	0	0	0	448	
0	0	0	0	0	448	
1	0	0	0	0	450	
2	0	0	0	0	452	
3	0	0	0	0	453	
4	0	0	0	0	454	
5	0	0	0	0	455	
6	0	0	0	0	455	
7	0	0	0	0	455	
8	0	0	0	0	457	
9	0	0	0	0	458	
10	0	0	0	0	459	
11	0	0	0	0	460	
12	0	0	0	0	461	
13	0	0	0	0	463	
14	0	0	0	0	464	
15	0	0	0	0	465	
0	0	0	0	0	467	
1	0	0	0	0	468	
2	0	0	0	0	468	
3	0	0	0	0	468	
4	0	0	0	0	470	
5	0	0	0	0	470	
6	0	0	0	0	472	
7	0	0	0	0	473	
8	0	0	0	0	475	
9	0	0	0	0	476	
10	0	0	0	0	476	
11	0	0	0	0	478	
12	0	0	0	0	479	
13	0	0	0	0	480	
14	0	0	0	0	482	
15	0	0	0	0	483	
0	0	0	0	0	483	
1	0	0	0	0	484	
2	0	0	0	0	485	
3	0	0	0	0	485	
4	0	0	0	0	486	
5	0	0	0	0	487	
6	0	0	0	0	487	
7	0	0	0	0	487	
8	0	0	0	0	488	
9	0	0	0	0	489	
10	0	0	0	0	491	
11	0	0	0	0	492	
12	0	0	0	0	492	
13	0	0	0	0	493	
14	0	0	0	0	494	
15	0	0	0	0	495	
0	0	0	0	0	496	
1	0	0	0	0	498	
2	0	0	0	0	498	
3	0	0	0	0	498	
4	0	0	0	0	499	
5	0	0	0	0	500	
6	0	0	0	0	500	
7	0	0	0	0	501	
8	0	0	0	0	503	
9	0	0	0	0	504	
10	0	0	0	0	504	
11	0	0	0	0	504	
12	0	0	0	0	505	
13	0	0	0	0	505	
14	0	0	0	0	506	
15	0	0	0	0	507	
0	0	0	0	0	508	
1	0	0	0	0	509	
2	0	0	0	0	509	
3	0	0	0	0	509	
4	0	0	0	0	510	
5	0	0	0	0	510	
6	0	0	0	0	511	
7	0	0	0	0	512	
8	0	0	0	0	512	
9	0	0	0	0	513	
10	0	0	0	0	513	
11	0	0	0	0	514	
12	0	0	0	0	515	
13	0	0	0	0	515	
14	0	0	0	0	515	
15	0	0	0	0	515	
0	0	0	0	0	516	
1	0	0	0	0	517	
2	0	0	0	0	518	
3	0	0	0	0	519	
4	0	0	0	0	519	
5	0	0	0	0	520	
6	0	0	0	0	521	
7	0	0	0	0	523	
8	0	0	0	0	524	
9	0	0	0	0	525	
10	0	0	0	0	526	
11	0	0	0	0	526	
12	0	0	0	0	527	
13	0	0	0	0	527	
14	0	0	0	0	527	
15	0	0	0	0	528	
0	0	0	0	0	528	
1	0	0	0	0	528	
2	0	0	0	0	527	
3	0	0	0	0	527	
4	0	0	0	0	527	
5	0	0	0	0	527	
6	0	0	0	0	527	
7	0	0	0	0	527	
8	0	0	0	0	529	
9	0	0	0	0	528	
10	0	0	0	0	529	
11	0	0	0	0	529	
12	0	0	0	0	532	
13	0	0	0	0	533	
14	0	0	0	0	534	
15	0	0	0	0	535	
0	0	0	0	0	535	
1	0	0	0	0	534	
2	0	0	0	0	534	
3	0	0	0	0	534	
4	0	0	0	0	534	
5	0	0	0	0	534	
6	0	0	0	0	533	
7	0	0	0	0	533	
8	0	0	0	0	533	
9	0	0	0	0	532	
10	0	0	0	0	532	
11	0	0	0	0	533	
12	0	0	0	0	532	
13	0	0	0	0	532	
14	0	0	0	0	532	
15	0	0	0	0	534	
0	0	0	0	0	535	
1	0	0	0	0	536	
2	0	0	0	0	535	
3	0	0	0	0	534	
4	0	0	0	0	533	
5	0	0	0	0	532	
6	0	0	0	0	532	
7	0	0	0	0	532	
8	0	0	0	0	532	
9	0	0	0	0	531	
10	0	0	0	0	531	
11	0	0	0	0	530	
12	0	0	0	0	530	
13	0	0	0	0	531	
14	0	0	0	0	531	
15	0	0	0	0	530	
0	0	0	0	0	530	
1	0	0	0	0	530	
2	0	0	0	0	530	
3	0	0	0	0	529	
4	0	0	0	0	529	
5	0	0	0	0	530	
6	0	0	0	0	531	
7	0	0	0	0	531	
8	0	0	0	0	531	
9	0	0	0	0	530	
10	0	0	0	0	530	
11	0	0	0	0	528	
12	0	0	0	0	527	
13	0	0	0	0	526	
14	0	0	0	0	524	
15	0	0	0	0	523	
0	0	0	0	0	522	
1	0	0	0	0	521	
2	0	0	0	0	520	
3	0	0	0	0	518	
4	0	0	0	0	516	
5	0	0	0	0	515	
6	0	0	0	0	513	
7	0	0	0	0	511	
8	0	0	0	0	509	
9	0	0	0	0	508	
10	0	0	0	0	506	
11	0	0	0	0	504	
12	0	0	0	0	503	
13	0	0	0	0	501	
14	0	0	0	0	499	
15	0	0	0	0	499	
0	0	0	0	0	498	
1	0	0	0	0	496	
2	0	0	0	0	494	
3	0	0	0	0	492	
4	0	0	0	0	490	
5	0	0	0	0	489	
6	0	0	0	0	487	
7	0	0	0	0	486	
8	0	0	0	0	484	
9	0	0	0	0	483	
10	0	0	0	0	481	
11	0	0	0	0	480	
12	0	0	0	0	479	
13	0	0	0	0	478	
14	0	0	0	0	477	
15	0	0	0	0	476	
0	0	0	0	0	475	
1	0	0	0	0	473	
2	0	0	0	0	473	
3	0	0	0	0	472	
4	0	0	0	0	470	
5	0	0	0	0	468	
6	0	0	0	0	467	
7	0	0	0	0	466	
8	0	0	0	0	464	
9	0	0	0	0	463	
10	0	0	0	0	463	
11	0	0	0	0	463	
12	0	0	0	0	463	
13	0	0	0	0	463	
14	0	0	0	0	462	
15	0	0	0	0	462	
0	0	0	0	0	462	
1	0	0	0	0	462	
2	0	0	0	0	462	
3	0	0	0	0	462	
4	0	0	0	0	462	
5	0	0	0	0	462	
6	0	0	0	0	462	
7	0	0	0	0	461	
8	0	0	0	0	460	
9	0	0	0	0	460	
10	0	0	0	0	460	
11	0	0	0	0	460	
12	0	0	0	0	459	
13	0	0	0	0	460	
14	0	0	0	0	460	
15	0	0	0	0	461	
0	0	0	0	0	462	
1	0	0	0	0	462	
2	0	0	0	0	461	
3	0	0	0	0	462	
4	0	0	0	0	461	
5	0	0	0	0	462	
6	0	0	0	0	462	
7	0	0	0	0	462	
8	0	0	0	0	462	
9	0	0	0	0	462	
10	0	0	0	0	464	
11	0	0	0	0	465	
12	0	0	0	0	466	
13	0	0	0	0	467	
14	0	0	0	0	466	
15	0	0	0	0	466	
0	0	0	0	0	467	
1	0	0	0	0	467	
2	0	0	0	0	468	
3	0	0	0	0	469	
4	0	0	0	0	469	
5	0	0	0	0	469	
6	0	0	0	0	470	
7	0	0	0	0	469	
8	0	0	0	0	470	
9	0	0	0	0	471	
10	0	0	0	0	471	
11	0	0	0	0	471	
12	0	0	0	0	472	
13	0	0	0	0	471	
14	0	0	0	0	472	
15	0	0	0	0	472	
0	0	0	0	0	472	
1	0	0	0	0	473	
2	0	0	0	0	472	
3	0	0	0	0	473	
4	0	0	0	0	473	
5	0	0	0	0	474	
6	0	0	0	0	475	
7	0	0	0	0	475	
8	0	0	0	0	476	
9	0	0	0	0	476	
10	0	0	0	0	477	
11	0	0	0	0	478	
12	0	0	0	0	479	
13	0	0	0	0	480	
14	0	0	0	0	481	
15	0	0	0	0	481	
0	0	0	0	0	481	
1	0	0	0	0	480	
2	0	0	0	0	480	
3	0	0	0	0	481	
4	0	0	0	0	481	
5	0	0	0	0	483	
6	0	0	0	0	483	
7	0	0	0	0	483	
8	0	0	0	0	484	
9	0	0	0	0	484	
10	0	0	0	0	485	
11	0	0	0	0	486	
12	0	0	0	0	486	
13	0	0	0	0	486	
14	0	0	0	0	486	
15	0	0	0	0	487	
0	0	0	0	0	488	
1	0	0	0	0	489	
2	0	0	0	0	490	
3	0	0	0	0	491	
4	0	0	0	0	491	
5	0	0	0	0	491	
6	0	0	0	0	491	
7	0	0	0	0	491	
8	0	0	0	0	491	
9	0	0	0	0	491	
10	0	0	0	0	490	
11	0	0	0	0	491	
12	0	0	0	0	490	
13	0	0	0	0	490	
14	0	0	0	0	491	
15	0	0	0	0	492	
0	0	0	0	0	493	
1	0	0	0	0	494	
2	0	0	0	0	494	
3	0	0	0	0	495	
4	0	0	0	0	496	
5	0	0	0	0	496	
6	0	0	0	0	496	
7	0	0	0	0	496	
8	0	0	0	0	496	
9	0	0	0	0	495	
10	0	0	0	0	496	
11	0	0	0	0	496	
12	0	0	0	0	496	
13	0	0	0	0	496	
14	0	0	0	0	496	
15	0	0	0	0	497	
0	0	0	0	0	498	
1	0	0	0	0	497	
2	0	0	0	0	497	
3	0	0	0	0	497	
4	0	0	0	0	497	
5	0	0	0	0	498	
6	0	0	0	0	498	
7	0	0	0	0	499	
8	0	0	0	0	499	
9	0	0	0	0	499	
10	0	0	0	0	499	
11	0	0	0	0	500	
12	0	0	0	0	500	
13	0	0	0	0	500	
14	0	0	0	0	501	
15	0	0	0	0	501	
0	0	0	0	0	500	
1	0	0	0	0	500	
2	0	0	0	0	499	
3	0	0	0	0	499	
4	0	0	0	0	499	
5	0	0	0	0	499	
6	0	0	0	0	500	
7	0	0	0	0	500	
8	0	0	0	0	501	
9	0	0	0	0	500	
10	0	0	0	0	501	
11	0	0	0	0	501	
12	0	0	0	0	502	
13	0	0	0	0	503	
14	0	0	0	0	503	
15	0	0	0	0	503	
0	0	0	0	0	504	
1	0	0	0	0	503	
2	0	0	0	0	503	
3	0	0	0	0	502	
4	0	0	0	0	503	
5	0	0	0	0	504	
6	0	0	0	0	504	
7	0	0	0	0	504	
8	0	0	0	0	504	
9	0	0	0	0	503	
10	0	0	0	0	502	
11	0	0	0	0	501	
12	0	0	0	0	501	
13	0	0	0	0	502	
14	0	0	0	0	502	
15	0	0	0	0	503	
0	0	0	0	0	503	
1	0	0	0	0	503	
2	0	0	0	0	504	
3	0	0	0	0	503	
4	0	0	0	0	503	
5	0	0	0	0	502	
6	0	0	0	0	502	
7	0	0	0	0	502	
8	0	0	0	0	502	
9	0	0	0	0	502	
10	0	0	0	0	501	
11	0	0	0	0	501	
12	0	0	0	0	500	
13	0	0	0	0	500	
14	0	0	0	0	500	
15	0	0	0	0	500	
0	0	0	0	0	500	
1	0	0	0	0	499	
2	0	0	0	0	499	
3	0	0	0	0	499	
4	0	0	0	0	499	
5	0	0	0	0	499	
6	0	0	0	0	499	
7	0	0	0	0	499	
8	0	0	0	0	499	
9	0	0	0	0	499	
10	0	0	0	0	499	
11	0	0	0	0	498	
12	0	0	0	0	497	
13	0	0	0	0	497	
14	0	0	0	0	496	
15	0	0	0	0	496	
0	0	0	0	0	496	
1	0	0	0	0	496	
2	0	0	0	0	496	
3	0	0	0	0	497	
4	0	0	0	0	499	
5	0	0	0	0	499	
6	0	0	0	0	500	
7	0	0	0	0	500	
8	0	0	0	0	501	
9	0	0	0	0	502	
10	0	0	0	0	502	
11	0	0	0	0	502	
12	0	0	0	0	502	
13	0	0	0	0	502	
14	0	0	0	0	502	
15	0	0	0	0	501	
0	0	0	0	0	500	
1	0	0	0	0	500	
2	0	0	0	0	500	
3	0	0	0	0	499	
4	0	0	0	0	499	
5	0	0	0	0	499	
6	0	0	0	0	499	
7	0	0	0	0	499	
8	0	0	0	0	499	
9	0	0	0	0	500	
10	0	0	0	0	500	
11	0	0	0	0	501	
12	0	0	0	0	501	
13	0	0	0	0	502	
14	0	0	0	0	502	
15	0	0	0	0	502	
0	0	0	0	0	502	
1	0	0	0	0	503	
2	0	0	0	0	503	
3	0	0	0	0	502	
4	0	0	0	0	503	
5	0	0	0	0	503	
6	0	0	0	0	503	
7	0	0	0	0	503	
8	0	0	0	0	504	
9	0	0	0	0	503	
10	0	0	0	0	504	
11	0	0	0	0	503	
12	0	0	0	0	504	
13	0	0	0	0	504	
14	0	0	0	0	504	
15	0	0	0	0	504	
0	0	0	0	0	504	
1	0	0	0	0	504	
2	0	0	0	0	504	
3	0	0	0	0	504	
4	0	0	0	0	504	
5	0	0	0	0	505	
6	0	0	0	0	506	
7	0	0	0	0	507	
8	0	0	0	0	508	
9	0	0	0	0	508	
10	0	0	0	0	508	
11	0	0	0	0	508	
12	0	0	0	0	507	
13	0	0	0	0	508	
14	0	0	0	0	507	
15	0	0	0	0	507	
0	0	0	0	0	507	
1	0	0	0	0	507	
2	0	0	0	0	507	
3	0	0	0	0	507	
4	0	0	0	0	508	
5	0	0	0	0	509	
6	0	0	0	0	510	
7	0	0	0	0	509	
8	0	0	0	0	509	
9	0	0	0	0	508	
10	0	0	0	0	509	
11	0	0	0	0	509	
12	0	0	0	0	510	
13	0	0	0	0	510	
14	0	0	0	0	509	
15	0	0	0	0	509	
0	0	0	0	0	509	
1	0	0	0	0	509	
2	0	0	0	0	509	
3	0	0	0	0	509	
4	0	0	0	0	509	
5	0	0	0	0	509	
6	0	0	0	0	510	
7	0	0	0	0	510	
8	0	0	0	0	511	
9	0	0	0	0	511	
10	0	0	0	0	511	
11	0	0	0	0	511	
12	0	0	0	0	511	
13	0	0	0	0	510	
14	0	0	0	0	510	
15	0	0	0	0	510	
0	0	0	0	0	510	
1	0	0	0	0	510	
2	0	0	0	0	510	
3	0	0	0	0	508	
4	0	0	0	0	509	
5	0	0	0	0	509	
6	0	0	0	0	508	
7	0	0	0	0	508	
8	0	0	0	0	508	
9	0	0	0	0	508	
10	0	0	0	0	508	
11	0	0	0	0	508	
12	0	0	0	0	508	
13	0	0	0	0	509	
14	0	0	0	0	510	
15	0	0	0	0	511	
0	0	0	0	0	511	
1	0	0	0	0	511	
2	0	0	0	0	511	
3	0	0	0	0	512	
4	0	0	0	0	512	
5	0	0	0	0	512	
6	0	0	0	0	512	
7	0	0	0	0	513	
8	0	0	0	0	513	
9	0	0	0	0	513	
10	0	0	0	0	513	
11	0	0	0	0	513	
12	0	0	0	0	514	
13	0	0	0	0	514	
14	0	0	0	0	515	
15	0	0	0	0	516	
0	0	0	0	0	516	
1	0	0	0	0	516	
2	0	0	0	0	516	
3	0	0	0	0	516	
4	0	0	0	0	516	
5	0	0	0	0	516	
6	0	0	0	0	516	
7	0	0	0	0	516	
8	0	0	0	0	517	
9	0	0	0	0	517	
10	0	0	0	0	516	
11	0	0	0	0	515	
12	0	0	0	0	514	
13	0	0	0	0	514	
14	0	0	0	0	515	
15	0	0	0	0	515	
0	0	0	0	0	515	
1	0	0	0	0	515	
2	0	0	0	0	516	
3	0	0	0	0	516	
4	0	0	0	0	517	
5	0	0	0	0	517	
6	0	0	0	0	516	
7	0	0	0	0	516	
8	0	0	0	0	516	
9	0	0	0	0	516	
10	0	0	0	0	517	
11	0	0	0	0	517	
12	0	0	0	0	518	
13	0	0	0	0	518	
14	0	0	0	0	518	
15	0	0	0	0	518	
0	0	0	0	0	518	
1	0	0	0	0	517	
2	0	0	0	0	516	
3	0	0	0	0	517	
4	0	0	0	0	518	
5	0	0	0	0	518	
6	0	0	0	0	519	
7	0	0	0	0	519	
8	0	0	0	0	520	
9	0	0	0	0	522	
10	0	0	0	0	524	
11	0	0	0	0	525	
12	0	0	0	0	527	
13	0	0	0	0	527	
14	0	0	0	0	529	
15	0	0	0	0	530	
0	0	0	0	0	531	
1	0	0	0	0	532	
2	0	0	0	0	532	
3	0	0	0	0	533	
4	0	0	0	0	533	
5	0	0	0	0	532	
6	0	0	0	0	531	
7	0	0	0	0	531	
8	0	0	0	0	529	
9	0	0	0	0	527	
10	0	0	0	0	526	
11	0	0	0	0	524	
12	0	0	0	0	522	
13	0	0	0	0	522	
14	0	0	0	0	522	
15	0	0	0	0	521	
0	0	0	0	0	521	
1	0	0	0	0	521	
2	0	0	0	0	522	
3	0	0	0	0	522	
4	0	0	0	0	523	
5	0	0	0	0	524	
6	0	0	0	0	524	
7	0	0	0	0	525	
8	0	0	0	0	526	
9	0	0	0	0	526	
10	0	0	0	0	525	
11	0	0	0	0	524	
12	0	0	0	0	524	
13	0	0	0	0	524	
14	0	0	0	0	524	
15	0	0	0	0	524	
0	0	0	0	0	525	
1	0	0	0	0	525	
2	0	0	0	0	524	
3	0	0	0	0	524	
4	0	0	0	0	523	
5	0	0	0	0	521	
6	0	0	0	0	520	
7	0	0	0	0	518	
8	0	0	0	0	516	
9	0	0	0	0	516	
10	0	0	0	0	515	
11	0	0	0	0	514	
12	0	0	0	0	512	
13	0	0	0	0	511	
14	0	0	0	0	511	
15	0	0	0	0	511	
0	0	0	0	0	512	
1	0	0	0	0	512	
2	0	0	0	0	511	
3	0	0	0	0	512	
4	0	0	0	0	512	
5	0	0	0	0	513	
6	0	0	0	0	513	
7	0	0	0	0	513	
8	0	0	0	0	512	
9	0	0	0	0	511	
10	0	0	0	0	511	
11	0	0	0	0	511	
12	0	0	0	0	511	
13	0	0	0	0	510	
14	0	0	0	0	509	
15	0	0	0	0	508	
0	0	0	0	0	507	
1	0	0	0	0	507	
2	0	0	0	0	505	
3	0	0	0	0	505	
4	0	0	0	0	505	
5	0	0	0	0	505	
6	0	0	0	0	505	
7	0	0	0	0	505	
8	0	0	0	0	505	
9	0	0	0	0	505	
10	0	0	0	0	505	
11	0	0	0	0	504	
12	0	0	0	0	504	
13	0	0	0	0	504	
14	0	0	0	0	505	
15	0	0	0	0	505	
0	0	0	0	0	506	
1	0	0	0	0	506	
2	0	0	0	0	505	
3	0	0	0	0	505	
4	0	0	0	0	505	
5	0	0	0	0	506	
6	0	0	0	0	505	
7	0	0	0	0	505	
8	0	0	0	0	506	
9	0	0	0	0	507	
10	0	0	0	0	508	
11	0	0	0	0	508	
12	0	0	0	0	509	
13	0	0	0	0	510	
14	0	0	0	0	509	
15	0	0	0	0	509	
0	0	0	0	0	509	
1	0	0	0	0	508	
2	0	0	0	0	509	
3	0	0	0	0	509	
4	0	0	0	0	508	
5	0	0	0	0	509	
6	0	0	0	0	508	
7	0	0	0	0	508	
8	0	0	0	0	507	
9	0	0	0	0	507	
10	0	0	0	0	506	
11	0	0	0	0	505	
12	0	0	0	0	504	
13	0	0	0	0	504	
14	0	0	0	0	505	
15	0	0	0	0	506	
0	0	0	0	0	507	
1	0	0	0	0	511	
2	0	0	0	0	515	
3	0	0	0	0	523	
4	0	0	0	0	530	
5	0	0	0	0	539	
6	0	0	0	0	550	
7	0	0	0	0	563	
8	0	0	0	0	576	
9	0	0	0	0	590	
10	0	0	0	0	604	
11	0	0	0	0	617	
12	0	0	0	0	633	
13	0	0	0	0	651	
14	0	0	0	0	670	
15	0	0	0	0	690	
0	0	0	0	0	712	
1	0	0	0	0	735	
2	0	0	0	0	759	
3	0	0	0	0	783	
4	0	0	0	0	808	
5	0	0	0	0	834	
6	0	0	0	0	860	
7	0	0	0	0	886	
8	0	0	0	0	913	
9	0	0	0	0	941	
10	0	0	0	0	970	
11	0	0	0	0	996	
12	0	0	0	0	1016	
13	0	0	0	0	1022	
14	0	0	0	0	1022	
15	0	0	0	0	1022	
0	0	0	0	0	1022	
1	0	0	0	0	1022	
2	0	0	0	0	1022	
3	0	0	0	0	1020	
4	0	0	0	0	999	
5	0	0	0	0	972	
6	0	0	0	0	943	
7	0	0	0	0	910	
8	0	0	0	0	869	
9	0	0	0	0	822	
10	0	0	0	0	770	
11	0	0	0	0	717	
12	0	0	0	0	666	
13	0	0	0	0	620	
14	0	0	0	0	579	
15	0	0	0	0	543	
0	0	0	0	0	514	
1	0	0	0	0	491	
2	0	0	0	0	472	
3	0	0	0	0	459	
4	0	0	0	0	448	
5	0	0	0	0	438	
6	0	0	0	0	428	
7	0	0	0	0	419	
8	0	0	0	0	413	
9	0	0	0	0	407	
10	0	0	0	0	403	
11	0	0	0	0	399	
12	0	0	0	0	397	
13	0	0	0	0	395	
14	0	0	0	0	393	
15	0	0	0	0	393	
0	0	0	0	0	394	
1	0	0	0	0	394	
2	0	0	0	0	396	
3	0	0	0	0	397	
4	0	0	0	0	399	
5	0	0	0	0	401	
6	0	0	0	0	403	
7	0	0	0	0	405	
8	0	0	0	0	406	
9	0	0	0	0	407	
10	0	0	0	0	406	
11	0	0	0	0	406	
12	0	0	0	0	407	
13	0	0	0	0	406	
14	0	0	0	0	406	
15	0	0	0	0	407	
0	0	0	0	0	406	
1	0	0	0	0	406	
2	0	0	0	0	406	
3	0	0	0	0	408	
4	0	0	0	0	408	
5	0	0	0	0	408	
6	0	0	0	0	408	
7	0	0	0	0	408	
8	0	0	0	0	408	
9	0	0	0	0	409	
10	0	0	0	0	409	
11	0	0	0	0	409	
12	0	0	0	0	409	
13	0	0	0	0	411	
14	0	0	0	0	412	
15	0	0	0	0	412	
0	0	0	0	0	413	
1	0	0	0	0	414	
2	0	0	0	0	415	
3	0	0	0	0	416	
4	0	0	0	0	417	
5	0	0	0	0	419	
6	0	0	0	0	420	
7	0	0	0	0	423	
8	0	0	0	0	424	
9	0	0	0	0	424	
10	0	0	0	0	426	
11	0	0	0	0	427	
12	0	0	0	0	427	
13	0	0	0	0	426	
14	0	0	0	0	425	
15	0	0	0	0	426	
0	0	0	0	0	428	
1	0	0	0	0	431	
2	0	0	0	0	433	
3	0	0	0	0	435	
4	0	0	0	0	437	
5	0	0	0	0	438	
6	0	0	0	0	440	
7	0	0	0	0	441	
8	0	0	0	0	443	
9	0	0	0	0	444	
10	0	0	0	0	446	
11	0	0	0	0	447	
12	0	0	0	0	447	
13	0	0	0	0	448	
14	0	0	0	0	449	
15	0	0	0	0	450	
0	0	0	0	0	450	
1	0	0	0	0	451	
2	0	0	0	0	452	
3	0	0	0	0	454	
4	0	0	0	0	455	
5	0	0	0	0	456	
6	0	0	0	0	457	
7	0	0	0	0	458	
8	0	0	0	0	459	
9	0	0	0	0	460	
10	0	0	0	0	461	
11	0	0	0	0	463	
12	0	0	0	0	464	
13	0	0	0	0	466	
14	0	0	0	0	466	
15	0	0	0	0	467	
0	0	0	0	0	468	
1	0	0	0	0	470	
2	0	0	0	0	471	
3	0	0	0	0	471	
4	0	0	0	0	472	
5	0	0	0	0	472	
6	0	0	0	0	472	
7	0	0	0	0	473	
8	0	0	0	0	473	
9	0	0	0	0	474	
10	0	0	0	0	476	
11	0	0	0	0	477	
12	0	0	0	0	478	
13	0	0	0	0	479	
14	0	0	0	0	479	
15	0	0	0	0	480	
0	0	0	0	0	480	
1	0	0	0	0	482	
2	0	0	0	0	483	
3	0	0	0	0	483	
4	0	0	0	0	484	
5	0	0	0	0	485	
6	0	0	0	0	486	
7	0	0	0	0	487	
8	0	0	0	0	488	
9	0	0	0	0	489	
10	0	0	0	0	489	
11	0	0	0	0	489	
12	0	0	0	0	489	
13	0	0	0	0	490	
14	0	0	0	0	491	
15	0	0	0	0	492	
0	0	0	0	0	492	
1	0	0	0	0	494	
2	0	0	0	0	495	
3	0	0	0	0	496	
4	0	0	0	0	497	
5	0	0	0	0	498	
6	0	0	0	0	500	
7	0	0	0	0	501	
8	0	0	0	0	502	
9	0	0	0	0	502	
10	0	0	0	0	503	
11	0	0	0	0	503	
12	0	0	0	0	503	
13	0	0	0	0	504	
14	0	0	0	0	504	
15	0	0	0	0	504	
0	0	0	0	0	505	
1	0	0	0	0	505	
2	0	0	0	0	507	
3	0	0	0	0	508	
4	0	0	0	0	508	
5	0	0	0	0	509	
6	0	0	0	0	509	
7	0	0	0	0	510	
8	0	0	0	0	510	
9	0	0	0	0	510	
10	0	0	0	0	509	
11	0	0	0	0	510	
12	0	0	0	0	511	
13	0	0	0	0	512	
14	0	0	0	0	513	
15	0	0	0	0	514	
0	0	0	0	0	512	
1	0	0	0	0	512	
2	0	0	0	0	512	
3	0	0	0	0	513	
4	0	0	0	0	513	
5	0	0	0	0	513	
6	0	0	0	0	514	
7	0	0	0	0	514	
8	0	0	0	0	516	
9	0	0	0	0	517	
10	0	0	0	0	517	
11	0	0	0	0	518	
12	0	0	0	0	519	
13	0	0	0	0	519	
14	0	0	0	0	519	
15	0	0	0	0	519	
0	0	0	0	0	520	
1	0	0	0	0	520	
2	0	0	0	0	521	
3	0	0	0	0	521	
4	0	0	0	0	522	
5	0	0	0	0	523	
6	0	0	0	0	523	
7	0	0	0	0	524	
8	0	0	0	0	524	
9	0	0	0	0	524	
10	0	0	0	0	523	
11	0	0	0	0	523	
12	0	0	0	0	522	
13	0	0	0	0	523	
14	0	0	0	0	523	
15	0	0	0	0	523	
0	0	0	0	0	524	
1	0	0	0	0	525	
2	0	0	0	0	526	
3	0	0	0	0	526	
4	0	0	0	0	526	
5	0	0	0	0	526	
6	0	0	0	0	526	
7	0	0	0	0	525	
8	0	0	0	0	527	
9	0	0	0	0	526	
10	0	0	0	0	526	
11	0	0	0	0	526	
12	0	0	0	0	527	
13	0	0	0	0	527	
14	0	0	0	0	527	
15	0	0	0	0	527	
0	0	0	0	0	526	
1	0	0	0	0	526	
2	0	0	0	0	526	
3	0	0	0	0	527	
4	0	0	0	0	527	
5	0	0	0	0	528	
6	0	0	0	0	527	
7	0	0	0	0	527	
8	0	0	0	0	527	
9	0	0	0	0	527	
10	0	0	0	0	527	
11	0	0	0	0	527	
12	0	0	0	0	527	
13	0	0	0	0	526	
14	0	0	0	0	525	
15	0	0	0	0	524	
0	0	0	0	0	524	
1	0	0	0	0	524	
2	0	0	0	0	524	
3	0	0	0	0	524	
4	0	0	0	0	524	
5	0	0	0	0	524	
6	0	0	0	0	524	
7	0	0	0	0	524	
8	0	0	0	0	524	
9	0	0	0	0	525	
10	0	0	0	0	525	
11	0	0	0	0	525	
12	0	0	0	0	525	
13	0	0	0	0	524	
14	0	0	0	0	524	
15	0	0	0	0	523	
0	0	0	0	0	523	
1	0	0	0	0	522	
2	0	0	0	0	520	
3	0	0	0	0	520	
4	0	0	0	0	519	
5	0	0	0	0	518	
6	0	0	0	0	516	
7	0	0	0	0	514	
8	0	0	0	0	513	
9	0	0	0	0	512	
10	0	0	0	0	511	
11	0	0	0	0	510	
12	0	0	0	0	508	
13	0	0	0	0	506	
14	0	0	0	0	503	
15	0	0	0	0	501	
0	0	0	0	0	499	
1	0	0	0	0	497	
2	0	0	0	0	496	
3	0	0	0	0	495	
4	0	0	0	0	494	
5	0	0	0	0	492	
6	0	0	0	0	491	
7	0	0	0	0	489	
8	0	0	0	0	487	
9	0	0	0	0	486	
10	0	0	0	0	484	
11	0	0	0	0	483	
12	0	0	0	0	483	
13	0	0	0	0	481	
14	0	0	0	0	480	
15	0	0	0	0	480	
0	0	0	0	0	479	
1	0	0	0	0	478	
2	0	0	0	0	477	
3	0	0	0	0	475	
4	0	0	0	0	473	
5	0	0	0	0	472	
6	0	0	0	0	471	
7	0	0	0	0	470	
8	0	0	0	0	468	
9	0	0	0	0	467	
10	0	0	0	0	467	
11	0	0	0	0	467	
12	0	0	0	0	465	
13	0	0	0	0	464	
14	0	0	0	0	464	
15	0	0	0	0	463	
0	0	0	0	0	463	
1	0	0	0	0	462	
2	0	0	0	0	462	
3	0	0	0	0	462	
4	0	0	0	0	461	
5	0	0	0	0	462	
6	0	0	0	0	462	
7	0	0	0	0	462	
8	0	0	0	0	461	
9	0	0	0	0	460	
10	0	0	0	0	460	
11	0	0	0	0	461	
12	0	0	0	0	461	
13	0	0	0	0	461	
14	0	0	0	0	460	
15	0	0	0	0	461	
0	0	0	0	0	461	
1	0	0	0	0	461	
2	0	0	0	0	462	
3	0	0	0	0	462	
4	0	0	0	0	463	
5	0	0	0	0	462	
6	0	0	0	0	463	
7	0	0	0	0	464	
8	0	0	0	0	465	
9	0	0	0	0	466	
10	0	0	0	0	466	
11	0	0	0	0	465	
12	0	0	0	0	466	
13	0	0	0	0	465	
14	0	0	0	0	466	
15	0	0	0	0	467	
0	0	0	0	0	467	
1	0	0	0	0	468	
2	0	0	0	0	468	
3	0	0	0	0	468	
4	0	0	0	0	468	
5	0	0	0	0	469	
6	0	0	0	0	470	
7	0	0	0	0	469	
8	0	0	0	0	469	
9	0	0	0	0	470	
10	0	0	0	0	469	
11	0	0	0	0	470	
12	0	0	0	0	470	
13	0	0	0	0	470	
14	0	0	0	0	471	
15	0	0	0	0	472	
0	0	0	0	0	472	
1	0	0	0	0	472	
2	0	0	0	0	473	
3	0	0	0	0	475	
4	0	0	0	0	476	
5	0	0	0	0	476	
6	0	0	0	0	477	
7	0	0	0	0	478	
8	0	0	0	0	477	
9	0	0	0	0	478	
10	0	0	0	0	479	
11	0	0	0	0	480	
12	0	0	0	0	481	
13	0	0	0	0	481	
14	0	0	0	0	482	
15	0	0	0	0	483	
0	0	0	0	0	484	
1	0	0	0	0	485	
2	0	0	0	0	486	
3	0	0	0	0	487	
4	0	0	0	0	487	
5	0	0	0	0	487	
6	0	0	0	0	489	
7	0	0	0	0	489	
8	0	0	0	0	489	
9	0	0	0	0	490	
10	0	0	0	0	491	
11	0	0	0	0	490	
12	0	0	0	0	490	
13	0	0	0	0	491	
14	0	0	0	0	491	
15	0	0	0	0	492	
0	0	0	0	0	492	
1	0	0	0	0	492	
2	0	0	0	0	493	
3	0	0	0	0	494	
4	0	0	0	0	494	
5	0	0	0	0	495	
6	0	0	0	0	496	
7	0	0	0	0	496	
8	0	0	0	0	496	
9	0	0	0	0	496	
10	0	0	0	0	496	
11	0	0	0	0	497	
12	0	0	0	0	499	
13	0	0	0	0	499	
14	0	0	0	0	499	
15	0	0	0	0	500	
0	0	0	0	0	501	
1	0	0	0	0	501	
2	0	0	0	0	501	
3	0	0	0	0	501	
4	0	0	0	0	502	
5	0	0	0	0	503	
6	0	0	0	0	503	
7	0	0	0	0	504	
8	0	0	0	0	504	
9	0	0	0	0	505	
10	0	0	0	0	505	
11	0	0	0	0	505	
12	0	0	0	0	505	
13	0	0	0	0	504	
14	0	0	0	0	505	
15	0	0	0	0	504	
0	0	0	0	0	505	
1	0	0	0	0	505	
2	0	0	0	0	505	
3	0	0	0	0	505	
4	0	0	0	0	504	
5	0	0	0	0	504	
6	0	0	0	0	504	
7	0	0	0	0	504	
8	0	0	0	0	505	
9	0	0	0	0	505	
10	0	0	0	0	506	
11	0	0	0	0	506	
12	0	0	0	0	506	
13	0	0	0	0	506	
14	0	0	0	0	505	
15	0	0	0	0	505	
0	0	0	0	0	505	
1	0	0	0	0	505	
2	0	0	0	0	505	
3	0	0	0	0	505	
4	0	0	0	0	504	
5	0	0	0	0	504	
6	0	0	0	0	503	
7	0	0	0	0	503	
8	0	0	0	0	504	
9	0	0	0	0	505	
10	0	0	0	0	505	
11	0	0	0	0	505	
12	0	0	0	0	504	
13	0	0	0	0	505	
14	0	0	0	0	505	
15	0	0	0	0	505	
0	0	0	0	0	505	
1	0	0	0	0	506	
2	0	0	0	0	506	
3	0	0	0	0	505	
4	0	0	0	0	506	
5	0	0	0	0	505	
6	0	0	0	0	505	
7	0	0	0	0	505	
8	0	0	0	0	504	
9	0	0	0	0	504	
10	0	0	0	0	504	
11	0	0	0	0	504	
12	0	0	0	0	504	
13	0	0	0	0	504	
14	0	0	0	0	504	
15	0	0	0	0	505	
0	0	0	0	0	505	
1	0	0	0	0	504	
2	0	0	0	0	504	
3	0	0	0	0	505	
4	0	0	0	0	506	
5	0	0	0	0	507	
6	0	0	0	0	507	
7	0	0	0	0	505	
8	0	0	0	0	504	
9	0	0	0	0	504	
10	0	0	0	0	504	
11	0	0	0	0	504	
12	0	0	0	0	504	
13	0	0	0	0	504	
14	0	0	0	0	503	
15	0	0	0	0	504	
0	0	0	0	0	503	
1	0	0	0	0	503	
2	0	0	0	0	503	
3	0	0	0	0	502	
4	0	0	0	0	502	
5	0	0	0	0	502	
6	0	0	0	0	503	
7	0	0	0	0	503	
8	0	0	0	0	503	
9	0	0	0	0	503	
10	0	0	0	0	503	
11	0	0	0	0	503	
12	0	0	0	0	503	
13	0	0	0	0	503	
14	0	0	0	0	503	
15	0	0	0	0	503	
0	0	0	0	0	503	
1	0	0	0	0	503	
2	0	0	0	0	503	
3	0	0	0	0	502	
4	0	0	0	0	502	
5	0	0	0	0	502	
6	0	0	0	0	502	
7	0	0	0	0	502	
8	0	0	0	0	502	
9	0	0	0	0	502	
10	0	0	0	0	503	
11	0	0	0	0	503	
12	0	0	0	0	503	
13	0	0	0	0	504	
14	0	0	0	0	504	
15	0	0	0	0	504	
0	0	0	0	0	503	
1	0	0	0	0	503	
2	0	0	0	0	504	
3	0	0	0	0	503	
4	0	0	0	0	504	
5	0	0	0	0	504	
6	0	0	0	0	504	
7	0	0	0	0	505	
8	0	0	0	0	505	
9	0	0	0	0	505	
10	0	0	0	0	505	
11	0	0	0	0	504	
12	0	0	0	0	504	
13	0	0	0	0	503	
14	0	0	0	0	502	
15	0	0	0	0	501	
0	0	0	0	0	502	
1	0	0	0	0	505	
2	0	0	0	0	505	
3	0	0	0	0	507	
4	0	0	0	0	507	
5	0	0	0	0	506	
6	0	0	0	0	506	
7	0	0	0	0	507	
8	0	0	0	0	507	
9	0	0	0	0	507	
10	0	0	0	0	506	
11	0	0	0	0	506	
12	0	0	0	0	506	
13	0	0	0	0	505	
14	0	0	0	0	505	
15	0	0	0	0	505	
0	0	0	0	0	504	
1	0	0	0	0	504	
2	0	0	0	0	503	
3	0	0	0	0	503	
4	0	0	0	0	503	
5	0	0	0	0	504	
6	0	0	0	0	505	
7	0	0	0	0	505	
8	0	0	0	0	506	
9	0	0	0	0	506	
10	0	0	0	0	507	
11	0	0	0	0	507	
12	0	0	0	0	507	
13	0	0	0	0	507	
14	0	0	0	0	507	
15	0	0	0	0	507	
0	0	0	0	0	507	
1	0	0	0	0	508	
2	0	0	0	0	508	
3	0	0	0	0	508	
4	0	0	0	0	508	
5	0	0	0	0	508	
6	0	0	0	0	509	
7	0	0	0	0	509	
8	0	0	0	0	509	
9	0	0	0	0	509	
10	0	0	0	0	508	
11	0	0	0	0	508	
12	0	0	0	0	508	
13	0	0	0	0	508	
14	0	0	0	0	508	
15	0	0	0	0	509	
0	0	0	0	0	508	
1	0	0	0	0	508	
2	0	0	0	0	508	
3	0	0	0	0	508	
4	0	0	0	0	508	
5	0	0	0	0	509	
6	0	0	0	0	510	
7	0	0	0	0	510	
8	0	0	0	0	510	
9	0	0	0	0	510	
10	0	0	0	0	509	
11	0	0	0	0	509	
12	0	0	0	0	508	
13	0	0	0	0	508	
14	0	0	0	0	507	
15	0	0	0	0	507	
0	0	0	0	0	508	
1	0	0	0	0	508	
2	0	0	0	0	508	
3	0	0	0	0	507	
4	0	0	0	0	508	
5	0	0	0	0	508	
6	0	0	0	0	508	
7	0	0	0	0	509	
8	0	0	0	0	508	
9	0	0	0	0	509	
10	0	0	0	0	510	
11	0	0	0	0	511	
12	0	0	0	0	510	
13	0	0	0	0	510	
14	0	0	0	0	511	
15	0	0	0	0	511	
0	0	0	0	0	511	
1	0	0	0	0	511	
2	0	0	0	0	512	
3	0	0	0	0	512	
4	0	0	0	0	512	
5	0	0	0	0	512	
6	0	0	0	0	512	
7	0	0	0	0	512	
8	0	0	0	0	512	
9	0	0	0	0	512	
10	0	0	0	0	512	
11	0	0	0	0	512	
12	0	0	0	0	513	
13	0	0	0	0	513	
14	0	0	0	0	513	
15	0	0	0	0	513	
0	0	0	0	0	513	
1	0	0	0	0	513	
2	0	0	0	0	513	
3	0	0	0	0	514	
4	0	0	0	0	513	
5	0	0	0	0	514	
6	0	0	0	0	514	
7	0	0	0	0	515	
8	0	0	0	0	515	
9	0	0	0	0	515	
10	0	0	0	0	515	
11	0	0	0	0	515	
12	0	0	0	0	516	
13	0	0	0	0	516	
14	0	0	0	0	516	
15	0	0	0	0	515	
0	0	0	0	0	515	
1	0	0	0	0	515	
2	0	0	0	0	515	
3	0	0	0	0	514	
4	0	0	0	0	514	
5	0	0	0	0	515	
6	0	0	0	0	515	
7	0	0	0	0	515	
8	0	0	0	0	516	
9	0	0	0	0	518	
10	0	0	0	0	519	
11	0	0	0	0	519	
12	0	0	0	0	519	
13	0	0	0	0	518	
14	0	0	0	0	519	
15	0	0	0	0	519	
0	0	0	0	0	519	
1	0	0	0	0	518	
2	0	0	0	0	517	
3	0	0	0	0	517	
4	0	0	0	0	517	
5	0	0	0	0	517	
6	0	0	0	0	516	
7	0	0	0	0	517	
8	0	0	0	0	517	
9	0	0	0	0	517	
10	0	0	0	0	518	
11	0	0	0	0	518	
12	0	0	0	0	519	
13	0	0	0	0	519	
14	0	0	0	0	519	
15	0	0	0	0	519	
0	0	0	0	0	519	
1	0	0	0	0	519	
2	0	0	0	0	519	
3	0	0	0	0	519	
4	0	0	0	0	519	
5	0	0	0	0	519	
6	0	0	0	0	519	
7	0	0	0	0	519	
8	0	0	0	0	519	
9	0	0	0	0	518	
10	0	0	0	0	517	
11	0	0	0	0	518	
12	0	0	0	0	518	
13	0	0	0	0	518	
14	0	0	0	0	518	
15	0	0	0	0	518	
0	0	0	0	0	519	
1	0	0	0	0	519	
2	0	0	0	0	520	
3	0	0	0	0	521	
4	0	0	0	0	521	
5	0	0	0	0	521	
6	0	0	0	0	522	
7	0	0	0	0	522	
8	0	0	0	0	523	
9	0	0	0	0	521	
10	0	0	0	0	521	
11	0	0	0	0	521	
12	0	0	0	0	520	
13	0	0	0	0	520	
14	0	0	0	0	520	
15	0	0	0	0	520	
0	0	0	0	0	521	
1	0	0	0	0	522	
2	0	0	0	0	523	
3	0	0	0	0	524	
4	0	0	0	0	524	
5	0	0	0	0	526	
6	0	0	0	0	527	
7	0	0	0	0	528	
8	0	0	0	0	528	
9	0	0	0	0	529	
10	0	0	0	0	531	
11	0	0	0	0	533	
12	0	0	0	0	534	
13	0	0	0	0	535	
14	0	0	0	0	536	
15	0	0	0	0	536	
0	0	0	0	0	536	
1	0	0	0	0	535	
2	0	0	0	0	534	
3	0	0	0	0	531	
4	0	0	0	0	531	
5	0	0	0	0	530	
6	0	0	0	0	528	
7	0	0	0	0	527	
8	0	0	0	0	526	
9	0	0	0	0	525	
10	0	0	0	0	525	
11	0	0	0	0	524	
12	0	0	0	0	524	
13	0	0	0	0	526	
14	0	0	0	0	527	
15	0	0	0	0	528	
0	0	0	0	0	528	
1	0	0	0	0	529	
2	0	0	0	0	529	
3	0	0	0	0	529	
4	0	0	0	0	529	
5	0	0	0	0	530	
6	0	0	0	0	530	
7	0	0	0	0	530	
8	0	0	0	0	530	
9	0	0	0	0	529	
10	0	0	0	0	529	
11	0	0	0	0	530	
12	0	0	0	0	529	
13	0	0	0	0	529	
14	0	0	0	0	527	
15	0	0	0	0	526	
0	0	0	0	0	524	
1	0	0	0	0	522	
2	0	0	0	0	521	
3	0	0	0	0	520	
4	0	0	0	0	519	
5	0	0	0	0	518	
6	0	0	0	0	517	
7	0	0	0	0	515	
8	0	0	0	0	515	
9	0	0	0	0	515	
10	0	0	0	0	514	
11	0	0	0	0	514	
12	0	0	0	0	513	
13	0	0	0	0	513	
14	0	0	0	0	514	
15	0	0	0	0	515	
0	0	0	0	0	514	
1	0	0	0	0	515	
2	0	0	0	0	514	
3	0	0	0	0	514	
4	0	0	0	0	514	
5	0	0	0	0	514	
6	0	0	0	0	515	
7	0	0	0	0	515	
8	0	0	0	0	515	
9	0	0	0	0	513	
10	0	0	0	0	512	
11	0	0	0	0	511	
12	0	0	0	0	511	
13	0	0	0	0	511	
14	0	0	0	0	510	
15	0	0	0	0	509	
0	0	0	0	0	508	
1	0	0	0	0	508	
2	0	0	0	0	507	
3	0	0	0	0	507	
4	0	0	0	0	508	
5	0	0	0	0	508	
6	0	0	0	0	509	
7	0	0	0	0	509	
8	0	0	0	0	510	
9	0	0	0	0	510	
10	0	0	0	0	510	
11	0	0	0	0	509	
12	0	0	0	0	510	
13	0	0	0	0	510	
14	0	0	0	0	510	
15	0	0	0	0	510	
0	0	0	0	0	511	
1	0	0	0	0	510	
2	0	0	0	0	509	
3	0	0	0	0	508	
4	0	0	0	0	508	
5	0	0	0	0	508	
6	0	0	0	0	508	
7	0	0	0	0	510	
8	0	0	0	0	511	
9	0	0	0	0	512	
10	0	0	0	0	513	
11	0	0	0	0	513	
12	0	0	0	0	512	
13	0	0	0	0	512	
14	0	0	0	0	513	
15	0	0	0	0	513	
0	0	0	0	0	513	
1	0	0	0	0	513	
2	0	0	0	0	512	
3	0	0	0	0	512	
4	0	0	0	0	511	
5	0	0	0	0	510	
6	0	0	0	0	509	
7	0	0	0	0	509	
8	0	0	0	0	509	
9	0	0	0	0	510	
10	0	0	0	0	511	
11	0	0	0	0	513	
12	0	0	0	0	516	
13	0	0	0	0	522	
14	0	0	0	0	530	
15	0	0	0	0	538	
0	0	0	0	0	547	
1	0	0	0	0	560	
2	0	0	0	0	573	
3	0	0	0	0	587	
4	0	0	0	0	601	
5	0	0	0	0	615	
6	0	0	0	0	629	
7	0	0	0	0	645	
8	0	0	0	0	663	
9	0	0	0	0	681	
10	0	0	0	0	701	
11	0	0	0	0	722	
12	0	0	0	0	744	
13	0	0	0	0	767	
14	0	0	0	0	792	
15	0	0	0	0	817	
0	0	0	0	0	842	
1	0	0	0	0	868	
2	0	0	0	0	894	
3	0	0	0	0	921	
4	0	0	0	0	950	
5	0	0	0	0	977	
6	0	0	0	0	1004	
7	0	0	0	0	1021	
8	0	0	0	0	1022	
9	0	0	0	0	1022	
10	0	0	0	0	1022	
11	0	0	0	0	1022	
12	0	0	0	0	1022	
13	0	0	0	0	1022	
14	0	0	0	0	1021	
15	0	0	0	0	1001	
0	0	0	0	0	975	
1	0	0	0	0	945	
2	0	0	0	0	911	
3	0	0	0	0	870	
4	0	0	0	0	822	
5	0	0	0	0	771	
6	0	0	0	0	718	
7	0	0	0	0	668	
8	0	0	0	0	622	
9	0	0	0	0	582	
10	0	0	0	0	548	
11	0	0	0	0	519	
12	0	0	0	0	496	
13	0	0	0	0	477	
14	0	0	0	0	463	
15	0	0	0	0	451	
0	0	0	0	0	441	
1	0	0	0	0	433	
2	0	0	0	0	426	
3	0	0	0	0	420	
4	0	0	0	0	415	
5	0	0	0	0	410	
6	0	0	0	0	407	
7	0	0	0	0	404	
8	0	0	0	0	403	
9	0	0	0	0	402	
10	0	0	0	0	401	
11	0	0	0	0	401	
12	0	0	0	0	401	
13	0	0	0	0	402	
14	0	0	0	0	403	
15	0	0	0	0	404	
0	0	0	0	0	406	
1	0	0	0	0	408	
2	0	0	0	0	408	
3	0	0	0	0	409	
4	0	0	0	0	409	
5	0	0	0	0	409	
6	0	0	0	0	410	
7	0	0	0	0	409	
8	0	0	0	0	408	
9	0	0	0	0	408	
10	0	0	0	0	408	
11	0	0	0	0	408	
12	0	0	0	0	409	
13	0	0	0	0	408	
14	0	0	0	0	408	
15	0	0	0	0	408	
0	0	0	0	0	408	
1	0	0	0	0	409	
2	0	0	0	0	410	
3	0	0	0	0	411	
4	0	0	0	0	412	
5	0	0	0	0	412	
6	0	0	0	0	413	
7	0	0	0	0	414	
8	0	0	0	0	414	
9	0	0	0	0	415	
10	0	0	0	0	416	
11	0	0	0	0	416	
12	0	0	0	0	418	
13	0	0	0	0	419	
14	0	0	0	0	420	
15	0	0	0	0	422	
0	0	0	0	0	423	
1	0	0	0	0	424	
2	0	0	0	0	425	
3	0	0	0	0	425	
4	0	0	0	0	426	
5	0	0	0	0	427	
6	0	0	0	0	428	
7	0	0	0	0	429	
8	0	0	0	0	430	
9	0	0	0	0	430	
10	0	0	0	0	431	
11	0	0	0	0	432	
12	0	0	0	0	433	
13	0	0	0	0	433	
14	0	0	0	0	433	
15	0	0	0	0	434	
0	0	0	0	0	435	
1	0	0	0	0	435	
2	0	0	0	0	437	
3	0	0	0	0	438	
4	0	0	0	0	440	
5	0	0	0	0	441	
6	0	0	0	0	442	
7	0	0	0	0	444	
8	0	0	0	0	445	
9	0	0	0	0	446	
10	0	0	0	0	447	
11	0	0	0	0	447	
12	0	0	0	0	447	
13	0	0	0	0	448	
14	0	0	0	0	450	
15	0	0	0	0	451	
0	0	0	0	0	452	
1	0	0	0	0	454	
2	0	0	0	0	455	
3	0	0	0	0	456	
4	0	0	0	0	457	
5	0	0	0	0	458	
6	0	0	0	0	460	
7	0	0	0	0	461	
8	0	0	0	0	462	
9	0	0	0	0	464	
10	0	0	0	0	465	
11	0	0	0	0	466	
12	0	0	0	0	467	
13	0	0	0	0	467	
14	0	0	0	0	468	
15	0	0	0	0	468	
0	0	0	0	0	470	
1	0	0	0	0	470	
2	0	0	0	0	471	
3	0	0	0	0	471	
4	0	0	0	0	472	
5	0	0	0	0	472	
6	0	0	0	0	473	
7	0	0	0	0	475	
8	0	0	0	0	477	
9	0	0	0	0	478	
10	0	0	0	0	479	
11	0	0	0	0	480	
12	0	0	0	0	481	
13	0	0	0	0	483	
14	0	0	0	0	483	
15	0	0	0	0	484	
0	0	0	0	0	485	
1	0	0	0	0	486	
2	0	0	0	0	486	
3	0	0	0	0	486	
4	0	0	0	0	487	
5	0	0	0	0	487	
6	0	0	0	0	487	
7	0	0	0	0	488	
8	0	0	0	0	488	
9	0	0	0	0	489	
10	0	0	0	0	490	
11	0	0	0	0	492	
12	0	0	0	0	494	
13	0	0	0	0	495	
14	0	0	0	0	496	
15	0	0	0	0	496	
0	0	0	0	0	498	
1	0	0	0	0	499	
2	0	0	0	0	499	
3	0	0	0	0	500	
4	0	0	0	0	500	
5	0	0	0	0	500	
6	0	0	0	0	501	
7	0	0	0	0	501	
8	0	0	0	0	502	
9	0	0	0	0	502	
10	0	0	0	0	502	
11	0	0	0	0	502	
12	0	0	0	0	503	
13	0	0	0	0	503	
14	0	0	0	0	504	
15	0	0	0	0	504	
0	0	0	0	0	504	
1	0	0	0	0	504	
2	0	0	0	0	505	
3	0	0	0	0	506	
4	0	0	0	0	507	
5	0	0	0	0	508	
6	0	0	0	0	508	
7	0	0	0	0	508	
8	0	0	0	0	509	
9	0	0	0	0	509	
10	0	0	0	0	509	
11	0	0	0	0	510	
12	0	0	0	0	510	
13	0	0	0	0	509	
14	0	0	0	0	509	
15	0	0	0	0	510	
0	0	0	0	0	510	
1	0	0	0	0	511	
2	0	0	0	0	513	
3	0	0	0	0	514	
4	0	0	0	0	515	
5	0	0	0	0	515	
6	0	0	0	0	516	
7	0	0	0	0	516	
8	0	0	0	0	516	
9	0	0	0	0	516	
10	0	0	0	0	518	
11	0	0	0	0	519	
12	0	0	0	0	519	
13	0	0	0	0	520	
14	0	0	0	0	521	
15	0	0	0	0	522	
0	0	0	0	0	523	
1	0	0	0	0	524	
2	0	0	0	0	524	
3	0	0	0	0	524	
4	0	0	0	0	525	
5	0	0	0	0	525	
6	0	0	0	0	526	
7	0	0	0	0	526	
8	0	0	0	0	527	
9	0	0	0	0	526	
10	0	0	0	0	527	
11	0	0	0	0	527	
12	0	0	0	0	528	
13	0	0	0	0	528	
14	0	0	0	0	527	
15	0	0	0	0	527	
0	0	0	0	0	527	
1	0	0	0	0	527	
2	0	0	0	0	527	
3	0	0	0	0	527	
4	0	0	0	0	526	
5	0	0	0	0	526	
6	0	0	0	0	526	
7	0	0	0	0	526	
8	0	0	0	0	526	
9	0	0	0	0	527	
10	0	0	0	0	527	
11	0	0	0	0	526	
12	0	0	0	0	526	
13	0	0	0	0	526	
14	0	0	0	0	526	
15	0	0	0	0	527	
0	0	0	0	0	527	
1	0	0	0	0	527	
2	0	0	0	0	527	
3	0	0	0	0	527	
4	0	0	0	0	526	
5	0	0	0	0	527	
6	0	0	0	0	527	
7	0	0	0	0	527	
8	0	0	0	0	527	
9	0	0	0	0	527	
10	0	0	0	0	527	
11	0	0	0	0	526	
12	0	0	0	0	525	
13	0	0	0	0	525	
14	0	0	0	0	525	
15	0	0	0	0	526	
0	0	0	0	0	526	
1	0	0	0	0	525	
2	0	0	0	0	525	
3	0	0	0	0	525	
4	0	0	0	0	524	
5	0	0	0	0	524	
6	0	0	0	0	524	
7	0	0	0	0	523	
8	0	0	0	0	523	
9	0	0	0	0	522	
10	0	0	0	0	521	
11	0	0	0	0	520	
12	0	0	0	0	520	
13	0	0	0	0	519	
14	0	0	0	0	519	
15	0	0	0	0	518	
0	0	0	0	0	517	
1	0	0	0	0	517	
2	0	0	0	0	516	
3	0	0	0	0	514	
4	0	0	0	0	513	
5	0	0	0	0	511	
6	0	0	0	0	511	
7	0	0	0	0	510	
8	0	0	0	0	509	
9	0	0	0	0	508	
10	0	0	0	0	506	
11	0	0	0	0	505	
12	0	0	0	0	503	
13	0	0	0	0	502	
14	0	0	0	0	501	
15	0	0	0	0	499	
0	0	0	0	0	498	
1	0	0	0	0	496	
2	0	0	0	0	495	
3	0	0	0	0	492	
4	0	0	0	0	491	
5	0	0	0	0	489	
6	0	0	0	0	488	
7	0	0	0	0	487	
8	0	0	0	0	485	
9	0	0	0	0	483	
10	0	0	0	0	482	
11	0	0	0	0	480	
12	0	0	0	0	479	
13	0	0	0	0	478	
14	0	0	0	0	476	
15	0	0	0	0	476	
0	0	0	0	0	475	
1	0	0	0	0	475	
2	0	0	0	0	473	
3	0	0	0	0	472	
4	0	0	0	0	469	
5	0	0	0	0	467	
6	0	0	0	0	465	
7	0	0	0	0	464	
8	0	0	0	0	464	
9	0	0	0	0	464	
10	0	0	0	0	464	
11	0	0	0	0	463	
12	0	0	0	0	463	
13	0	0	0	0	462	
14	0	0	0	0	463	
15	0	0	0	0	463	
0	0	0	0	0	463	
1	0	0	0	0	463	
2	0	0	0	0	463	
3	0	0	0	0	463	
4	0	0	0	0	463	
5	0	0	0	0	463	
6	0	0	0	0	463	
7	0	0	0	0	463	
8	0	0	0	0	463	
9	0	0	0	0	462	
10	0	0	0	0	462	
11	0	0	0	0	462	
12	0	0	0	0	463	
13	0	0	0	0	463	
14	0	0	0	0	463	
15	0	0	0	0	463	
0	0	0	0	0	463	
1	0	0	0	0	463	
2	0	0	0	0	464	
3	0	0	0	0	465	
4	0	0	0	0	466	
5	0	0	0	0	466	
6	0	0	0	0	467	
7	0	0	0	0	468	
8	0	0	0	0	467	
9	0	0	0	0	468	
10	0	0	0	0	469	
11	0	0	0	0	470	
12	0	0	0	0	471	
13	0	0	0	0	471	
14	0	0	0	0	472	
15	0	0	0	0	472	
0	0	0	0	0	472	
1	0	0	0	0	473	
2	0	0	0	0	475	
3	0	0	0	0	475	
4	0	0	0	0	475	
5	0	0	0	0	475	
6	0	0	0	0	475	
7	0	0	0	0	476	
8	0	0	0	0	477	
9	0	0	0	0	478	
10	0	0	0	0	478	
11	0	0	0	0	478	
12	0	0	0	0	479	
13	0	0	0	0	480	
14	0	0	0	0	481	
15	0	0	0	0	483	
0	0	0	0	0	484	
1	0	0	0	0	486	
2	0	0	0	0	489	
3	0	0	0	0	492	
4	0	0	0	0	496	
5	0	0	0	0	498	
6	0	0	0	0	499	
7	0	0	0	0	500	
8	0	0	0	0	502	
9	0	0	0	0	504	
10	0	0	0	0	504	
11	0	0	0	0	502	
12	0	0	0	0	500	
13	0	0	0	0	500	
14	0	0	0	0	501	
15	0	0	0	0	502	
0	0	0	0	0	503	
1	0	0	0	0	504	
2	0	0	0	0	504	
3	0	0	0	0	503	
4	0	0	0	0	502	
5	0	0	0	0	500	
6	0	0	0	0	498	
7	0	0	0	0	496	
8	0	0	0	0	494	
9	0	0	0	0	492	
10	0	0	0	0	490	
11	0	0	0	0	487	
12	0	0	0	0	487	
13	0	0	0	0	485	
14	0	0	0	0	484	
15	0	0	0	0	484	
0	0	0	0	0	485	
1	0	0	0	0	485	
2	0	0	0	0	486	
3	0	0	0	0	486	
4	0	0	0	0	487	
5	0	0	0	0	487	
6	0	0	0	0	488	
7	0	0	0	0	489	
8	0	0	0	0	491	
9	0	0	0	0	491	
10	0	0	0	0	491	
11	0	0	0	0	491	
12	0	0	0	0	492	
13	0	0	0	0	493	
14	0	0	0	0	495	
15	0	0	0	0	496	
0	0	0	0	0	497	
1	0	0	0	0	497	
2	0	0	0	0	497	
3	0	0	0	0	499	
4	0	0	0	0	499	
5	0	0	0	0	500	
6	0	0	0	0	500	
7	0	0	0	0	500	
8	0	0	0	0	500	
9	0	0	0	0	500	
10	0	0	0	0	501	
11	0	0	0	0	501	
12	0	0	0	0	501	
13	0	0	0	0	501	
14	0	0	0	0	501	
15	0	0	0	0	500	
0	0	0	0	0	500	
1	0	0	0	0	499	
2	0	0	0	0	500	
3	0	0	0	0	502	
4	0	0	0	0	503	
5	0	0	0	0	504	
6	0	0	0	0	504	
7	0	0	0	0	505	
8	0	0	0	0	505	
9	0	0	0	0	505	
10	0	0	0	0	505	
11	0	0	0	0	506	
12	0	0	0	0	506	
13	0	0	0	0	507	
14	0	0	0	0	507	
15	0	0	0	0	506	
0	0	0	0	0	507	
1	0	0	0	0	507	
2	0	0	0	0	506	
3	0	0	0	0	505	
4	0	0	0	0	506	
5	0	0	0	0	506	
6	0	0	0	0	506	
7	0	0	0	0	506	
8	0	0	0	0	505	
9	0	0	0	0	505	
10	0	0	0	0	505	
11	0	0	0	0	505	
12	0	0	0	0	506	
13	0	0	0	0	507	
14	0	0	0	0	508	
15	0	0	0	0	508	
0	0	0	0	0	508	
1	0	0	0	0	508	
2	0	0	0	0	508	
3	0	0	0	0	508	
4	0	0	0	0	507	
5	0	0	0	0	508	
6	0	0	0	0	508	
7	0	0	0	0	507	
8	0	0	0	0	507	
9	0	0	0	0	506	
10	0	0	0	0	507	
11	0	0	0	0	508	
12	0	0	0	0	508	
13	0	0	0	0	508	
14	0	0	0	0	508	
15	0	0	0	0	508	
0	0	0	0	0	508	
1	0	0	0	0	508	
2	0	0	0	0	508	
3	0	0	0	0	508	
4	0	0	0	0	507	
5	0	0	0	0	507	
6	0	0	0	0	506	
7	0	0	0	0	506	
8	0	0	0	0	506	
9	0	0	0	0	506	
10	0	0	0	0	505	
11	0	0	0	0	505	
12	0	0	0	0	504	
13	0	0	0	0	505	
14	0	0	0	0	506	
15	0	0	0	0	506	
0	0	0	0	0	506	
1	0	0	0	0	506	
2	0	0	0	0	505	
3	0	0	0	0	505	
4	0	0	0	0	505	
5	0	0	0	0	505	
6	0	0	0	0	505	
7	0	0	0	0	505	
8	0	0	0	0	504	
9	0	0	0	0	504	
10	0	0	0	0	504	
11	0	0	0	0	505	
12	0	0	0	0	504	
13	0	0	0	0	504	
14	0	0	0	0	505	
15	0	0	0	0	505	
0	0	0	0	0	505	
1	0	0	0	0	506	
2	0	0	0	0	507	
3	0	0	0	0	506	
4	0	0	0	0	506	
5	0	0	0	0	505	
6	0	0	0	0	505	
7	0	0	0	0	505	
8	0	0	0	0	505	
9	0	0	0	0	505	
10	0	0	0	0	505	
11	0	0	0	0	506	
12	0	0	0	0	505	
13	0	0	0	0	505	
14	0	0	0	0	505	
15	0	0	0	0	506	
0	0	0	0	0	507	
1	0	0	0	0	507	
2	0	0	0	0	505	
3	0	0	0	0	505	
4	0	0	0	0	505	
5	0	0	0	0	504	
6	0	0	0	0	506	
7	0	0	0	0	507	
8	0	0	0	0	508	
9	0	0	0	0	508	
10	0	0	0	0	510	
11	0	0	0	0	510	
12	0	0	0	0	511	
13	0	0	0	0	512	
14	0	0	0	0	513	
15	0	0	0	0	512	
0	0	0	0	0	512	
1	0	0	0	0	511	
2	0	0	0	0	511	
3	0	0	0	0	512	
4	0	0	0	0	511	
5	0	0	0	0	510	
6	0	0	0	0	511	
7	0	0	0	0	511	
8	0	0	0	0	510	
9	0	0	0	0	510	
10	0	0	0	0	510	
11	0	0	0	0	509	
12	0	0	0	0	510	
13	0	0	0	0	511	
14	0	0	0	0	512	
15	0	0	0	0	512	
0	0	0	0	0	512	
1	0	0	0	0	512	
2	0	0	0	0	513	
3	0	0	0	0	512	
4	0	0	0	0	512	
5	0	0	0	0	512	
6	0	0	0	0	513	
7	0	0	0	0	512	
8	0	0	0	0	512	
9	0	0	0	0	511	
10	0	0	0	0	511	
11	0	0	0	0	512	
12	0	0	0	0	512	
13	0	0	0	0	513	
14	0	0	0	0	513	
15	0	0	0	0	514	
0	0	0	0	0	515	
1	0	0	0	0	515	
2	0	0	0	0	515	
3	0	0	0	0	515	
4	0	0	0	0	515	
5	0	0	0	0	516	
6	0	0	0	0	516	
7	0	0	0	0	516	
8	0	0	0	0	516	
9	0	0	0	0	516	
10	0	0	0	0	515	
11	0	0	0	0	515	
12	0	0	0	0	514	
13	0	0	0	0	514	
14	0	0	0	0	513	
15	0	0	0	0	513	
0	0	0	0	0	513	
1	0	0	0	0	514	
2	0	0	0	0	514	
3	0	0	0	0	514	
4	0	0	0	0	514	
5	0	0	0	0	514	
6	0	0	0	0	515	
7	0	0	0	0	515	
8	0	0	0	0	516	
9	0	0	0	0	516	
10	0	0	0	0	516	
11	0	0	0	0	516	
12	0	0	0	0	515	
13	0	0	0	0	515	
14	0	0	0	0	516	
15	0	0	0	0	515	
0	0	0	0	0	515	
1	0	0	0	0	515	
2	0	0	0	0	515	
3	0	0	0	0	516	
4	0	0	0	0	517	
5	0	0	0	0	518	
6	0	0	0	0	518	
7	0	0	0	0	517	
8	0	0	0	0	517	
9	0	0	0	0	518	
10	0	0	0	0	519	
11	0	0	0	0	519	
12	0	0	0	0	519	
13	0	0	0	0	519	
14	0	0	0	0	519	
15	0	0	0	0	519	
0	0	0	0	0	519	
1	0	0	0	0	519	
2	0	0	0	0	519	
3	0	0	0	0	518	
4	0	0	0	0	518	
5	0	0	0	0	517	
6	0	0	0	0	516	
7	0	0	0	0	517	
8	0	0	0	0	519	
9	0	0	0	0	519	
10	0	0	0	0	519	
11	0	0	0	0	519	
12	0	0	0	0	519	
13	0	0	0	0	519	
14	0	0	0	0	519	
15	0	0	0	0	519	
0	0	0	0	0	520	
1	0	0	0	0	521	
2	0	0	0	0	521	
3	0	0	0	0	520	
4	0	0	0	0	519	
5	0	0	0	0	519	
6	0	0	0	0	520	
7	0	0	0	0	521	
8	0	0	0	0	520	
9	0	0	0	0	519	
10	0	0	0	0	519	
11	0	0	0	0	519	
12	0	0	0	0	519	
13	0	0	0	0	519	
14	0	0	0	0	520	
15	0	0	0	0	520	
0	0	0	0	0	521	
1	0	0	0	0	521	
2	0	0	0	0	522	
3	0	0	0	0	523	
4	0	0	0	0	523	
5	0	0	0	0	524	
6	0	0	0	0	524	
7	0	0	0	0	524	
8	0	0	0	0	523	
9	0	0	0	0	523	
10	0	0	0	0	523	
11	0	0	0	0	522	
12	0	0	0	0	522	
13	0	0	0	0	521	
14	0	0	0	0	520	
15	0	0	0	0	521	
0	0	0	0	0	521	
1	0	0	0	0	522	
2	0	0	0	0	522	
3	0	0	0	0	523	
4	0	0	0	0	523	
5	0	0	0	0	523	
6	0	0	0	0	523	
7	0	0	0	0	524	
8	0	0	0	0	524	
9	0	0	0	0	523	
10	0	0	0	0	523	
11	0	0	0	0	523	
12	0	0	0	0	524	
13	0	0	0	0	524	
14	0	0	0	0	525	
15	0	0	0	0	524	
0	0	0	0	0	523	
1	0	0	0	0	524	
2	0	0	0	0	523	
3	0	0	0	0	523	
4	0	0	0	0	523	
5	0	0	0	0	522	
6	0	0	0	0	522	
7	0	0	0	0	522	
8	0	0	0	0	522	
9	0	0	0	0	522	
10	0	0	0	0	523	
11	0	0	0	0	523	
12	0	0	0	0	523	
13	0	0	0	0	523	
14	0	0	0	0	523	
15	0	0	0	0	523	
0	0	0	0	0	523	
1	0	0	0	0	523	
2	0	0	0	0	524	
3	0	0	0	0	524	
4	0	0	0	0	523	
5	0	0	0	0	523	
6	0	0	0	0	523	
7	0	0	0	0	523	
8	0	0	0	0	522	
9	0	0	0	0	523	
10	0	0	0	0	523	
11	0	0	0	0	523	
12	0	0	0	0	523	
13	0	0	0	0	523	
14	0	0	0	0	523	
15	0	0	0	0	523	
0	0	0	0	0	523	
1	0	0	0	0	523	
2	0	0	0	0	523	
3	0	0	0	0	523	
4	0	0	0	0	523	
5	0	0	0	0	524	
6	0	0	0	0	524	
7	0	0	0	0	525	
8	0	0	0	0	525	
9	0	0	0	0	525	
10	0	0	0	0	526	
11	0	0	0	0	526	
12	0	0	0	0	525	
13	0	0	0	0	525	
14	0	0	0	0	525	
15	0	0	0	0	525	
0	0	0	0	0	526	
1	0	0	0	0	525	
2	0	0	0	0	526	
3	0	0	0	0	526	
4	0	0	0	0	526	
5	0	0	0	0	527	
6	0	0	0	0	527	
7	0	0	0	0	527	
8	0	0	0	0	527	
9	0	0	0	0	526	
10	0	0	0	0	526	
11	0	0	0	0	524	
12	0	0	0	0	524	
13	0	0	0	0	523	
14	0	0	0	0	523	
15	0	0	0	0	523	
0	0	0	0	0	523	
1	0	0	0	0	523	
2	0	0	0	0	523	
3	0	0	0	0	523	
4	0	0	0	0	524	
5	0	0	0	0	523	
6	0	0	0	0	524	
7	0	0	0	0	524	
8	0	0	0	0	524	
9	0	0	0	0	525	
10	0	0	0	0	526	
11	0	0	0	0	527	
12	0	0	0	0	527	
13	0	0	0	0	527	
14	0	0	0	0	529	
15	0	0	0	0	528	
0	0	0	0	0	527	
1	0	0	0	0	527	
2	0	0	0	0	526	
3	0	0	0	0	526	
4	0	0	0	0	526	
5	0	0	0	0	527	
6	0	0	0	0	527	
7	0	0	0	0	527	
8	0	0	0	0	528	
9	0	0	0	0	528	
10	0	0	0	0	529	
11	0	0	0	0	531	
12	0	0	0	0	531	
13	0	0	0	0	532	
14	0	0	0	0	532	
15	0	0	0	0	532	
0	0	0	0	0	534	
1	0	0	0	0	534	
2	0	0	0	0	535	
3	0	0	0	0	536	
4	0	0	0	0	537	
5	0	0	0	0	537	
6	0	0	0	0	537	
7	0	0	0	0	537	
8	0	0	0	0	536	
9	0	0	0	0	535	
10	0	0	0	0	534	
11	0	0	0	0	532	
12	0	0	0	0	531	
13	0	0	0	0	530	
14	0	0	0	0	529	
15	0	0	0	0	528	
0	0	0	0	0	527	
1	0	0	0	0	527	
2	0	0	0	0	527	
3	0	0	0	0	528	
4	0	0	0	0	530	
5	0	0	0	0	532	
6	0	0	0	0	534	
7	0	0	0	0	535	
8	0	0	0	0	536	
9	0	0	0	0	537	
10	0	0	0	0	537	
11	0	0	0	0	538	
12	0	0	0	0	539	
13	0	0	0	0	540	
14	0	0	0	0	540	
15	0	0	0	0	538	
0	0	0	0	0	537	
1	0	0	0	0	535	
2	0	0	0	0	534	
3	0	0	0	0	532	
4	0	0	0	0	531	
5	0	0	0	0	529	
6	0	0	0	0	528	
7	0	0	0	0	527	
8	0	0	0	0	525	
9	0	0	0	0	524	
10	0	0	0	0	523	
11	0	0	0	0	521	
12	0	0	0	0	519	
13	0	0	0	0	519	
14	0	0	0	0	517	
15	0	0	0	0	516	
0	0	0	0	0	515	
1	0	0	0	0	514	
2	0	0	0	0	513	
3	0	0	0	0	513	
4	0	0	0	0	515	
5	0	0	0	0	515	
6	0	0	0	0	516	
7	0	0	0	0	515	
8	0	0	0	0	514	
9	0	0	0	0	513	
10	0	0	0	0	513	
11	0	0	0	0	513	
12	0	0	0	0	513	
13	0	0	0	0	513	
14	0	0	0	0	513	
15	0	0	0	0	513	
0	0	0	0	0	512	
1	0	0	0	0	511	
2	0	0	0	0	510	
3	0	0	0	0	510	
4	0	0	0	0	508	
5	0	0	0	0	508	
6	0	0	0	0	507	
7	0	0	0	0	506	
8	0	0	0	0	506	
9	0	0	0	0	506	
10	0	0	0	0	506	
11	0	0	0	0	508	
12	0	0	0	0	509	
13	0	0	0	0	510	
14	0	0	0	0	510	
15	0	0	0	0	510	
0	0	0	0	0	510	
1	0	0	0	0	509	
2	0	0	0	0	509	
3	0	0	0	0	509	
4	0	0	0	0	508	
5	0	0	0	0	508	
6	0	0	0	0	508	
7	0	0	0	0	508	
8	0	0	0	0	508	
9	0	0	0	0	509	
10	0	0	0	0	508	
11	0	0	0	0	508	
12	0	0	0	0	508	
13	0	0	0	0	508	
14	0	0	0	0	508	
15	0	0	0	0	509	
0	0	0	0	0	509	
1	0	0	0	0	510	
2	0	0	0	0	510	
3	0	0	0	0	511	
4	0	0	0	0	511	
5	0	0	0	0	511	
6	0	0	0	0	511	
7	0	0	0	0	511	
8	0	0	0	0	511	
9	0	0	0	0	511	
10	0	0	0	0	510	
11	0	0	0	0	509	
12	0	0	0	0	508	
13	0	0	0	0	507	
14	0	0	0	0	507	
15	0	0	0	0	507	
0	0	0	0	0	508	
1	0	0	0	0	510	
2	0	0	0	0	512	
3	0	0	0	0	515	
4	0	0	0	0	521	
5	0	0	0	0	529	
6	0	0	0	0	536	
7	0	0	0	0	546	
8	0	0	0	0	558	
9	0	0	0	0	570	
10	0	0	0	0	583	
11	0	0	0	0	597	
12	0	0	0	0	610	
13	0	0	0	0	624	
14	0	0	0	0	640	
15	0	0	0	0	659	
0	0	0	0	0	678	
1	0	0	0	0	699	
2	0	0	0	0	722	
3	0	0	0	0	745	
4	0	0	0	0	769	
5	0	0	0	0	792	
6	0	0	0	0	817	
7	0	0	0	0	843	
8	0	0	0	0	869	
9	0	0	0	0	897	
10	0	0	0	0	924	
11	0	0	0	0	952	
12	0	0	0	0	979	
13	0	0	0	0	1002	
14	0	0	0	0	1018	
15	0	0	0	0	1022	
0	0	0	0	0	1022	
1	0	0	0	0	1022	
2	0	0	0	0	1022	
3	0	0	0	0	1022	
4	0	0	0	0	1019	
5	0	0	0	0	999	
6	0	0	0	0	974	
7	0	0	0	0	946	
8	0	0	0	0	915	
9	0	0	0	0	876	
10	0	0	0	0	833	
11	0	0	0	0	783	
12	0	0	0	0	731	
13	0	0	0	0	679	
14	0	0	0	0	632	
15	0	0	0	0	591	
0	0	0	0	0	554	
1	0	0	0	0	523	
2	0	0	0	0	497	
3	0	0	0	0	477	
4	0	0	0	0	462	
5	0	0	0	0	451	
6	0	0	0	0	440	
7	0	0	0	0	431	
8	0	0	0	0	421	
9	0	0	0	0	414	
10	0	0	0	0	408	
11	0	0	0	0	402	
12	0	0	0	0	399	
13	0	0	0	0	397	
14	0	0	0	0	396	
15	0	0	0	0	395	
0	0	0	0	0	395	
1	0	0	0	0	396	
2	0	0	0	0	396	
3	0	0	0	0	396	
4	0	0	0	0	398	
5	0	0	0	0	400	
6	0	0	0	0	403	
7	0	0	0	0	405	
8	0	0	0	0	407	
9	0	0	0	0	408	
10	0	0	0	0	408	
11	0	0	0	0	408	
12	0	0	0	0	408	
13	0	0	0	0	408	
14	0	0	0	0	408	
15	0	0	0	0	408	
0	0	0	0	0	408	
1	0	0	0	0	408	
2	0	0	0	0	408	
3	0	0	0	0	407	
4	0	0	0	0	407	
5	0	0	0	0	406	
6	0	0	0	0	406	
7	0	0	0	0	407	
8	0	0	0	0	408	
9	0	0	0	0	407	
10	0	0	0	0	407	
11	0	0	0	0	407	
12	0	0	0	0	408	
13	0	0	0	0	408	
14	0	0	0	0	409	
15	0	0	0	0	410	
0	0	0	0	0	411	
1	0	0	0	0	412	
2	0	0	0	0	413	
3	0	0	0	0	414	
4	0	0	0	0	415	
5	0	0	0	0	415	
6	0	0	0	0	416	
7	0	0	0	0	417	
8	0	0	0	0	418	
9	0	0	0	0	419	
10	0	0	0	0	420	
11	0	0	0	0	421	
12	0	0	0	0	423	
13	0	0	0	0	423	
14	0	0	0	0	424	
15	0	0	0	0	425	
0	0	0	0	0	425	
1	0	0	0	0	426	
2	0	0	0	0	427	
3	0	0	0	0	428	
4	0	0	0	0	429	
5	0	0	0	0	429	
6	0	0	0	0	430	
7	0	0	0	0	432	
8	0	0	0	0	433	
9	0	0	0	0	435	
10	0	0	0	0	436	
11	0	0	0	0	437	
12	0	0	0	0	439	
13	0	0	0	0	440	
14	0	0	0	0	441	
15	0	0	0	0	443	
0	0	0	0	0	444	
1	0	0	0	0	445	
2	0	0	0	0	446	
3	0	0	0	0	446	
4	0	0	0	0	447	
5	0	0	0	0	447	
6	0	0	0	0	448	
7	0	0	0	0	449	
8	0	0	0	0	450	
9	0	0	0	0	451	
10	0	0	0	0	452	
11	0	0	0	0	454	
12	0	0	0	0	455	
13	0	0	0	0	456	
14	0	0	0	0	458	
15	0	0	0	0	459	
0	0	0	0	0	460	
1	0	0	0	0	460	
2	0	0	0	0	461	
3	0	0	0	0	463	
4	0	0	0	0	464	
5	0	0	0	0	465	
6	0	0	0	0	467	
7	0	0	0	0	467	
8	0	0	0	0	468	
9	0	0	0	0	469	
10	0	0	0	0	469	
11	0	0	0	0	470	
12	0	0	0	0	471	
13	0	0	0	0	473	
14	0	0	0	0	475	
15	0	0	0	0	475	
0	0	0	0	0	476	
1	0	0	0	0	475	
2	0	0	0	0	476	
3	0	0	0	0	478	
4	0	0	0	0	479	
5	0	0	0	0	480	
6	0	0	0	0	481	
7	0	0	0	0	483	
8	0	0	0	0	484	
9	0	0	0	0	486	
10	0	0	0	0	487	
11	0	0	0	0	487	
12	0	0	0	0	488	
13	0	0	0	0	488	
14	0	0	0	0	489	
15	0	0	0	0	490	
0	0	0	0	0	491	
1	0	0	0	0	492	
2	0	0	0	0	492	
3	0	0	0	0	492	
4	0	0	0	0	493	
5	0	0	0	0	494	
6	0	0	0	0	494	
7	0	0	0	0	495	
8	0	0	0	0	495	
9	0	0	0	0	496	
10	0	0	0	0	496	
11	0	0	0	0	496	
12	0	0	0	0	496	
13	0	0	0	0	496	
14	0	0	0	0	497	
15	0	0	0	0	498	
0	0	0	0	0	499	
1	0	0	0	0	499	
2	0	0	0	0	500	
3	0	0	0	0	500	
4	0	0	0	0	501	
5	0	0	0	0	502	
6	0	0	0	0	503	
7	0	0	0	0	504	
8	0	0	0	0	504	
9	0	0	0	0	506	
10	0	0	0	0	507	
11	0	0	0	0	507	
12	0	0	0	0	508	
13	0	0	0	0	509	
14	0	0	0	0	509	
15	0	0	0	0	510	
0	0	0	0	0	510	
1	0	0	0	0	511	
2	0	0	0	0	511	
3	0	0	0	0	511	
4	0	0	0	0	511	
5	0	0	0	0	511	
6	0	0	0	0	512	
7	0	0	0	0	512	
8	0	0	0	0	512	
9	0	0	0	0	513	
10	0	0	0	0	513	
11	0	0	0	0	514	
12	0	0	0	0	515	
13	0	0	0	0	517	
14	0	0	0	0	519	
15	0	0	0	0	519	
0	0	0	0	0	520	
1	0	0	0	0	519	
2	0	0	0	0	519	
3	0	0	0	0	519	
4	0	0	0	0	519	
5	0	0	0	0	520	
6	0	0	0	0	520	
7	0	0	0	0	520	
8	0	0	0	0	520	
9	0	0	0	0	519	
10	0	0	0	0	519	
11	0	0	0	0	520	
12	0	0	0	0	520	
13	0	0	0	0	521	
14	0	0	0	0	522	
15	0	0	0	0	522	
0	0	0	0	0	523	
1	0	0	0	0	524	
2	0	0	0	0	524	
3	0	0	0	0	524	
4	0	0	0	0	524	
5	0	0	0	0	525	
6	0	0	0	0	524	
7	0	0	0	0	524	
8	0	0	0	0	525	
9	0	0	0	0	525	
10	0	0	0	0	525	
11	0	0	0	0	524	
12	0	0	0	0	525	
13	0	0	0	0	524	
14	0	0	0	0	525	
15	0	0	0	0	525	
0	0	0	0	0	525	
1	0	0	0	0	525	
2	0	0	0	0	525	
3	0	0	0	0	524	
4	0	0	0	0	525	
5	0	0	0	0	526	
6	0	0	0	0	526	
7	0	0	0	0	527	
8	0	0	0	0	527	
9	0	0	0	0	527	
10	0	0	0	0	527	
11	0	0	0	0	527	
12	0	0	0	0	526	
13	0	0	0	0	526	
14	0	0	0	0	526	
15	0	0	0	0	526	
0	0	0	0	0	524	
1	0	0	0	0	524	
2	0	0	0	0	523	
3	0	0	0	0	523	
4	0	0	0	0	523	
5	0	0	0	0	523	
6	0	0	0	0	522	
7	0	0	0	0	523	
8	0	0	0	0	523	
9	0	0	0	0	523	
10	0	0	0	0	523	
11	0	0	0	0	524	
12	0	0	0	0	525	
13	0	0	0	0	524	
14	0	0	0	0	523	
15	0	0	0	0	523	
0	0	0	0	0	522	
1	0	0	0	0	521	
2	0	0	0	0	522	
3	0	0	0	0	522	
4	0	0	0	0	522	
5	0	0	0	0	522	
6	0	0	0	0	520	
7	0	0	0	0	520	
8	0	0	0	0	519	
9	0	0	0	0	518	
10	0	0	0	0	517	
11	0	0	0	0	516	
12	0	0	0	0	515	
13	0	0	0	0	513	
14	0	0	0	0	512	
15	0	0	0	0	511	
0	0	0	0	0	510	
1	0	0	0	0	508	
2	0	0	0	0	507	
3	0	0	0	0	506	
4	0	0	0	0	506	
5	0	0	0	0	504	
6	0	0	0	0	503	
7	0	0	0	0	501	
8	0	0	0	0	499	
9	0	0	0	0	497	
10	0	0	0	0	495	
11	0	0	0	0	494	
12	0	0	0	0	492	
13	0	0	0	0	491	
14	0	0	0	0	489	
15	0	0	0	0	487	
0	0	0	0	0	486	
1	0	0	0	0	484	
2	0	0	0	0	483	
3	0	0	0	0	482	
4	0	0	0	0	481	
5	0	0	0	0	479	
6	0	0	0	0	478	
7	0	0	0	0	476	
8	0	0	0	0	475	
9	0	0	0	0	474	
10	0	0	0	0	473	
11	0	0	0	0	473	
12	0	0	0	0	471	
13	0	0	0	0	471	
14	0	0	0	0	471	
15	0	0	0	0	470	
0	0	0	0	0	469	
1	0	0	0	0	468	
2	0	0	0	0	467	
3	0	0	0	0	467	
4	0	0	0	0	466	
5	0	0	0	0	465	
6	0	0	0	0	466	
7	0	0	0	0	466	
8	0	0	0	0	466	
9	0	0	0	0	467	
10	0	0	0	0	467	
11	0	0	0	0	467	
12	0	0	0	0	467	
13	0	0	0	0	467	
14	0	0	0	0	466	
15	0	0	0	0	465	
0	0	0	0	0	465	
1	0	0	0	0	464	
2	0	0	0	0	464	
3	0	0	0	0	464	
4	0	0	0	0	465	
5	0	0	0	0	465	
6	0	0	0	0	465	
7	0	0	0	0	465	
8	0	0	0	0	467	
9	0	0	0	0	466	
10	0	0	0	0	467	
11	0	0	0	0	467	
12	0	0	0	0	468	
13	0	0	0	0	468	
14	0	0	0	0	468	
15	0	0	0	0	468	
0	0	0	0	0	470	
1	0	0	0	0	471	
2	0	0	0	0	471	
3	0	0	0	0	471	
4	0	0	0	0	471	
5	0	0	0	0	471	
6	0	0	0	0	471	
7	0	0	0	0	472	
8	0	0	0	0	474	
9	0	0	0	0	475	
10	0	0	0	0	476	
11	0	0	0	0	476	
12	0	0	0	0	477	
13	0	0	0	0	478	
14	0	0	0	0	479	
15	0	0	0	0	480	
0	0	0	0	0	480	
1	0	0	0	0	480	
2	0	0	0	0	480	
3	0	0	0	0	480	
4	0	0	0	0	480	
5	0	0	0	0	480	
6	0	0	0	0	480	
7	0	0	0	0	481	
8	0	0	0	0	482	
9	0	0	0	0	483	
10	0	0	0	0	483	
11	0	0	0	0	483	
12	0	0	0	0	485	
13	0	0	0	0	486	
14	0	0	0	0	486	
15	0	0	0	0	487	
0	0	0	0	0	488	
1	0	0	0	0	490	
2	0	0	0	0	491	
3	0	0	0	0	493	
4	0	0	0	0	493	
5	0	0	0	0	494	
6	0	0	0	0	494	
7	0	0	0	0	494	
8	0	0	0	0	495	
9	0	0	0	0	495	
10	0	0	0	0	496	
11	0	0	0	0	495	
12	0	0	0	0	496	
13	0	0	0	0	496	
14	0	0	0	0	495	
15	0	0	0	0	495	
0	0	0	0	0	495	
1	0	0	0	0	496	
2	0	0	0	0	496	
3	0	0	0	0	497	
4	0	0	0	0	497	
5	0	0	0	0	497	
6	0	0	0	0	497	
7	0	0	0	0	498	
8	0	0	0	0	498	
9	0	0	0	0	500	
10	0	0	0	0	501	
11	0	0	0	0	502	
12	0	0	0	0	503	
13	0	0	0	0	504	
14	0	0	0	0	504	
15	0	0	0	0	505	
0	0	0	0	0	505	
1	0	0	0	0	506	
2	0	0	0	0	506	
3	0	0	0	0	506	
4	0	0	0	0	506	
5	0	0	0	0	506	
6	0	0	0	0	506	
7	0	0	0	0	505	
8	0	0	0	0	505	
9	0	0	0	0	505	
10	0	0	0	0	506	
11	0	0	0	0	507	
12	0	0	0	0	507	
13	0	0	0	0	507	
14	0	0	0	0	508	
15	0	0	0	0	508	
0	0	0	0	0	508	
1	0	0	0	0	508	
2	0	0	0	0	507	
3	0	0	0	0	508	
4	0	0	0	0	508	
5	0	0	0	0	508	
6	0	0	0	0	508	
7	0	0	0	0	508	
8	0	0	0	0	508	
9	0	0	0	0	508	
10	0	0	0	0	508	
11	0	0	0	0	507	
12	0	0	0	0	505	
13	0	0	0	0	505	
14	0	0	0	0	507	
15	0	0	0	0	508	
0	0	0	0	0	508	
1	0	0	0	0	508	
2	0	0	0	0	507	
3	0	0	0	0	508	
4	0	0	0	0	508	
5	0	0	0	0	508	
6	0	0	0	0	509	
7	0	0	0	0	509	
8	0	0	0	0	509	
9	0	0	0	0	510	
10	0	0	0	0	509	
11	0	0	0	0	510	
12	0	0	0	0	510	
13	0	0	0	0	510	
14	0	0	0	0	510	
15	0	0	0	0	510	
0	0	0	0	0	510	
1	0	0	0	0	509	
2	0	0	0	0	510	
3	0	0	0	0	510	
4	0	0	0	0	510	
5	0	0	0	0	509	
6	0	0	0	0	509	
7	0	0	0	0	508	
8	0	0	0	0	509	
9	0	0	0	0	509	
10	0	0	0	0	509	
11	0	0	0	0	510	
12	0	0	0	0	509	
13	0	0	0	0	508	
14	0	0	0	0	507	
15	0	0	0	0	507	
0	0	0	0	0	505	
1	0	0	0	0	505	
2	0	0	0	0	505	
3	0	0	0	0	505	
4	0	0	0	0	505	
5	0	0	0	0	506	
6	0	0	0	0	506	
7	0	0	0	0	506	
8	0	0	0	0	506	
9	0	0	0	0	506	
10	0	0	0	0	505	
11	0	0	0	0	504	
12	0	0	0	0	504	
13	0	0	0	0	504	
14	0	0	0	0	504	
15	0	0	0	0	505	
0	0	0	0	0	505	
1	0	0	0	0	504	
2	0	0	0	0	504	
3	0	0	0	0	504	
4	0	0	0	0	504	
5	0	0	0	0	504	
6	0	0	0	0	504	
7	0	0	0	0	503	
8	0	0	0	0	502	
9	0	0	0	0	501	
10	0	0	0	0	500	
11	0	0	0	0	499	
12	0	0	0	0	499	
13	0	0	0	0	501	
14	0	0	0	0	501	
15	0	0	0	0	501	
0	0	0	0	0	501	
1	0	0	0	0	501	
2	0	0	0	0	501	
3	0	0	0	0	501	
4	0	0	0	0	502	
5	0	0	0	0	502	
6	0	0	0	0	501	
7	0	0	0	0	500	
8	0	0	0	0	499	
9	0	0	0	0	499	
10	0	0	0	0	498	
11	0	0	0	0	499	
12	0	0	0	0	499	
13	0	0	0	0	499	
14	0	0	0	0	499	
15	0	0	0	0	499	
0	0	0	0	0	498	
1	0	0	0	0	499	
2	0	0	0	0	498	
3	0	0	0	0	497	
4	0	0	0	0	498	
5	0	0	0	0	499	
6	0	0	0	0	499	
7	0	0	0	0	500	
8	0	0	0	0	500	
9	0	0	0	0	500	
10	0	0	0	0	499	
11	0	0	0	0	499	
12	0	0	0	0	497	
13	0	0	0	0	496	
14	0	0	0	0	496	
15	0	0	0	0	498	
0	0	0	0	0	499	
1	0	0	0	0	502	
2	0	0	0	0	503	
3	0	0	0	0	502	
4	0	0	0	0	503	
5	0	0	0	0	504	
6	0	0	0	0	506	
7	0	0	0	0	505	
8	0	0	0	0	505	
9	0	0	0	0	505	
10	0	0	0	0	506	
11	0	0	0	0	506	
12	0	0	0	0	507	
13	0	0	0	0	507	
14	0	0	0	0	507	
15	0	0	0	0	507	
0	0	0	0	0	508	
1	0	0	0	0	508	
2	0	0	0	0	509	
3	0	0	0	0	509	
4	0	0	0	0	510	
5	0	0	0	0	510	
6	0	0	0	0	510	
7	0	0	0	0	511	
8	0	0	0	0	511	
9	0	0	0	0	511	
10	0	0	0	0	510	
11	0	0	0	0	510	
12	0	0	0	0	510	
13	0	0	0	0	509	
14	0	0	0	0	510	
15	0	0	0	0	510	
0	0	0	0	0	510	
1	0	0	0	0	510	
2	0	0	0	0	509	
3	0	0	0	0	510	
4	0	0	0	0	509	
5	0	0	0	0	510	
6	0	0	0	0	509	
7	0	0	0	0	510	
8	0	0	0	0	511	
9	0	0	0	0	511	
10	0	0	0	0	511	
11	0	0	0	0	512	
12	0	0	0	0	512	
13	0	0	0	0	512	
14	0	0	0	0	511	
15	0	0	0	0	511	
0	0	0	0	0	512	
1	0	0	0	0	512	
2	0	0	0	0	512	
3	0	0	0	0	511	
4	0	0	0	0	511	
5	0	0	0	0	511	
6	0	0	0	0	510	
7	0	0	0	0	510	
8	0	0	0	0	510	
9	0	0	0	0	511	
10	0	0	0	0	510	
11	0	0	0	0	509	
12	0	0	0	0	509	
13	0	0	0	0	508	
14	0	0	0	0	508	
15	0	0	0	0	508	
0	0	0	0	0	508	
1	0	0	0	0	509	
2	0	0	0	0	509	
3	0	0	0	0	508	
4	0	0	0	0	508	
5	0	0	0	0	508	
6	0	0	0	0	508	
7	0	0	0	0	508	
8	0	0	0	0	508	
9	0	0	0	0	508	
10	0	0	0	0	506	
11	0	0	0	0	506	
12	0	0	0	0	505	
13	0	0	0	0	505	
14	0	0	0	0	505	
15	0	0	0	0	505	
0	0	0	0	0	504	
1	0	0	0	0	505	
2	0	0	0	0	504	
3	0	0	0	0	503	
4	0	0	0	0	502	
5	0	0	0	0	502	
6	0	0	0	0	502	
7	0	0	0	0	503	
8	0	0	0	0	503	
9	0	0	0	0	503	
10	0	0	0	0	503	
11	0	0	0	0	503	
12	0	0	0	0	503	
13	0	0	0	0	502	
14	0	0	0	0	502	
15	0	0	0	0	503	
0	0	0	0	0	504	
1	0	0	0	0	504	
2	0	0	0	0	504	
3	0	0	0	0	503	
4	0	0	0	0	503	
5	0	0	0	0	503	
6	0	0	0	0	502	
7	0	0	0	0	501	
8	0	0	0	0	500	
9	0	0	0	0	500	
10	0	0	0	0	502	
11	0	0	0	0	503	
12	0	0	0	0	504	
13	0	0	0	0	502	
14	0	0	0	0	502	
15	0	0	0	0	501	
0	0	0	0	0	501	
1	0	0	0	0	502	
2	0	0	0	0	501	
3	0	0	0	0	501	
4	0	0	0	0	500	
5	0	0	0	0	500	
6	0	0	0	0	500	
7	0	0	0	0	500	
8	0	0	0	0	500	
9	0	0	0	0	500	
10	0	0	0	0	500	
11	0	0	0	0	501	
12	0	0	0	0	501	
13	0	0	0	0	501	
14	0	0	0	0	500	
15	0	0	0	0	500	
0	0	0	0	0	500	
1	0	0	0	0	501	
2	0	0	0	0	501	
3	0	0	0	0	501	
4	0	0	0	0	501	
5	0	0	0	0	500	
6	0	0	0	0	500	
7	0	0	0	0	502	
8	0	0	0	0	501	
9	0	0	0	0	501	
10	0	0	0	0	502	
11	0	0	0	0	501	
12	0	0	0	0	502	
13	0	0	0	0	502	
14	0	0	0	0	502	
15	0	0	0	0	502	
0	0	0	0	0	503	
1	0	0	0	0	504	
2	0	0	0	0	503	
3	0	0	0	0	503	
4	0	0	0	0	503	
5	0	0	0	0	503	
6	0	0	0	0	503	
7	0	0	0	0	503	
8	0	0	0	0	502	
9	0	0	0	0	502	
10	0	0	0	0	501	
11	0	0	0	0	500	
12	0	0	0	0	499	
13	0	0	0	0	499	
14	0	0	0	0	498	
15	0	0	0	0	499	
0	0	0	0	0	500	
1	0	0	0	0	502	
2	0	0	0	0	504	
3	0	0	0	0	504	
4	0	0	0	0	503	
5	0	0	0	0	503	
6	0	0	0	0	503	
7	0	0	0	0	503	
8	0	0	0	0	503	
9	0	0	0	0	503	
10	0	0	0	0	504	
11	0	0	0	0	503	
12	0	0	0	0	503	
13	0	0	0	0	504	
14	0	0	0	0	503	
15	0	0	0	0	503	
0	0	0	0	0	503	
1	0	0	0	0	502	
2	0	0	0	0	502	
3	0	0	0	0	501	
4	0	0	0	0	501	
5	0	0	0	0	501	
6	0	0	0	0	502	
7	0	0	0	0	503	
8	0	0	0	0	503	
9	0	0	0	0	503	
10	0	0	0	0	502	
11	0	0	0	0	502	
12	0	0	0	0	501	
13	0	0	0	0	501	
14	0	0	0	0	502	
15	0	0	0	0	503	
0	0	0	0	0	502	
1	0	0	0	0	502	
2	0	0	0	0	500	
3	0	0	0	0	500	
4	0	0	0	0	500	
5	0	0	0	0	500	
6	0	0	0	0	500	
7	0	0	0	0	501	
8	0	0	0	0	502	
9	0	0	0	0	502	
10	0	0	0	0	501	
11	0	0	0	0	502	
12	0	0	0	0	502	
13	0	0	0	0	502	
14	0	0	0	0	502	
15	0	0	0	0	502	
0	0	0	0	0	502	
1	0	0	0	0	502	
2	0	0	0	0	502	
3	0	0	0	0	503	
4	0	0	0	0	503	
5	0	0	0	0	503	
6	0	0	0	0	503	
7	0	0	0	0	504	
8	0	0	0	0	504	
9	0	0	0	0	504	
10	0	0	0	0	503	
11	0	0	0	0	504	
12	0	0	0	0	505	
13	0	0	0	0	507	
14	0	0	0	0	507	
15	0	0	0	0	506	
0	0	0	0	0	506	
1	0	0	0	0	506	
2	0	0	0	0	506	
3	0	0	0	0	506	
4	0	0	0	0	506	
5	0	0	0	0	506	
6	0	0	0	0	507	
7	0	0	0	0	505	
8	0	0	0	0	504	
9	0	0	0	0	504	
10	0	0	0	0	504	
11	0	0	0	0	504	
12	0	0	0	0	504	
13	0	0	0	0	505	
14	0	0	0	0	505	
15	0	0	0	0	504	
0	0	0	0	0	504	
1	0	0	0	0	503	
2	0	0	0	0	502	
3	0	0	0	0	502	
4	0	0	0	0	503	
5	0	0	0	0	504	
6	0	0	0	0	504	
7	0	0	0	0	505	
8	0	0	0	0	505	
9	0	0	0	0	506	
10	0	0	0	0	505	
11	0	0	0	0	505	
12	0	0	0	0	505	
13	0	0	0	0	505	
14	0	0	0	0	504	
15	0	0	0	0	504	
0	0	0	0	0	504	
1	0	0	0	0	504	
2	0	0	0	0	504	
3	0	0	0	0	504	
4	0	0	0	0	504	
5	0	0	0	0	504	
6	0	0	0	0	505	
7	0	0	0	0	505	
8	0	0	0	0	506	
9	0	0	0	0	507	
10	0	0	0	0	507	
11	0	0	0	0	507	
12	0	0	0	0	507	
13	0	0	0	0	505	
14	0	0	0	0	506	
15	0	0	0	0	507	
0	0	0	0	0	508	
1	0	0	0	0	508	
2	0	0	0	0	508	
3	0	0	0	0	508	
4	0	0	0	0	508	
5	0	0	0	0	510	
6	0	0	0	0	511	
7	0	0	0	0	511	
8	0	0	0	0	511	
9	0	0	0	0	512	
10	0	0	0	0	512	
11	0	0	0	0	513	
12	0	0	0	0	513	
13	0	0	0	0	513	
14	0	0	0	0	512	
15	0	0	0	0	512	
0	0	0	0	0	511	
1	0	0	0	0	512	
2	0	0	0	0	512	
3	0	0	0	0	512	
4	0	0	0	0	512	
5	0	0	0	0	513	
6	0	0	0	0	515	
7	0	0	0	0	515	
8	0	0	0	0	515	
9	0	0	0	0	516	
10	0	0	0	0	516	
11	0	0	0	0	518	
12	0	0	0	0	520	
13	0	0	0	0	522	
14	0	0	0	0	524	
15	0	0	0	0	525	
0	0	0	0	0	524	
1	0	0	0	0	524	
2	0	0	0	0	523	
3	0	0	0	0	523	
4	0	0	0	0	522	
5	0	0	0	0	520	
6	0	0	0	0	519	
7	0	0	0	0	518	
8	0	0	0	0	516	
9	0	0	0	0	514	
10	0	0	0	0	512	
11	0	0	0	0	512	
12	0	0	0	0	513	
13	0	0	0	0	515	
14	0	0	0	0	517	
15	0	0	0	0	519	
0	0	0	0	0	521	
1	0	0	0	0	522	
2	0	0	0	0	522	
3	0	0	0	0	522	
4	0	0	0	0	523	
5	0	0	0	0	523	
6	0	0	0	0	524	
7	0	0	0	0	523	
8	0	0	0	0	524	
9	0	0	0	0	524	
10	0	0	0	0	524	
11	0	0	0	0	522	
12	0	0	0	0	521	
13	0	0	0	0	520	
14	0	0	0	0	519	
15	0	0	0	0	518	
0	0	0	0	0	517	
1	0	0	0	0	516	
2	0	0	0	0	514	
3	0	0	0	0	514	
4	0	0	0	0	513	
5	0	0	0	0	512	
6	0	0	0	0	512	
7	0	0	0	0	512	
8	0	0	0	0	510	
9	0	0	0	0	510	
10	0	0	0	0	508	
11	0	0	0	0	508	
12	0	0	0	0	508	
13	0	0	0	0	507	
14	0	0	0	0	507	
15	0	0	0	0	505	
0	0	0	0	0	505	
1	0	0	0	0	504	
2	0	0	0	0	503	
3	0	0	0	0	503	
4	0	0	0	0	503	
5	0	0	0	0	503	
6	0	0	0	0	503	
7	0	0	0	0	503	
8	0	0	0	0	502	
9	0	0	0	0	503	
10	0	0	0	0	504	
11	0	0	0	0	504	
12	0	0	0	0	502	
13	0	0	0	0	502	
14	0	0	0	0	503	
15	0	0	0	0	502	
0	0	0	0	0	503	
1	0	0	0	0	502	
2	0	0	0	0	502	
3	0	0	0	0	501	
4	0	0	0	0	501	
5	0	0	0	0	503	
6	0	0	0	0	502	
7	0	0	0	0	503	
8	0	0	0	0	504	
9	0	0	0	0	504	
10	0	0	0	0	505	
11	0	0	0	0	506	
12	0	0	0	0	507	
13	0	0	0	0	508	
14	0	0	0	0	509	
15	0	0	0	0	510	
0	0	0	0	0	509	
1	0	0	0	0	510	
2	0	0	0	0	510	
3	0	0	0	0	510	
4	0	0	0	0	511	
5	0	0	0	0	510	
6	0	0	0	0	509	
7	0	0	0	0	510	
8	0	0	0	0	511	
9	0	0	0	0	511	
10	0	0	0	0	511	
11	0	0	0	0	511	
12	0	0	0	0	511	
13	0	0	0	0	511	
14	0	0	0	0	511	
15	0	0	0	0	511	
0	0	0	0	0	512	
1	0	0	0	0	512	
2	0	0	0	0	512	
3	0	0	0	0	512	
4	0	0	0	0	510	
5	0	0	0	0	509	
6	0	0	0	0	508	
7	0	0	0	0	506	
8	0	0	0	0	505	
9	0	0	0	0	505	
10	0	0	0	0	505	
11	0	0	0	0	504	
12	0	0	0	0	505	
13	0	0	0	0	507	
14	0	0	0	0	510	
15	0	0	0	0	515	
0	0	0	0	0	522	
1	0	0	0	0	530	
2	0	0	0	0	539	
3	0	0	0	0	549	
4	0	0	0	0	562	
5	0	0	0	0	575	
6	0	0	0	0	588	
7	0	0	0	0	602	
8	0	0	0	0	614	
9	0	0	0	0	630	
10	0	0	0	0	647	
11	0	0	0	0	666	
12	0	0	0	0	685	
13	0	0	0	0	707	
14	0	0	0	0	730	
15	0	0	0	0	752	
0	0	0	0	0	776	
1	0	0	0	0	800	
2	0	0	0	0	826	
3	0	0	0	0	852	
4	0	0	0	0	877	
5	0	0	0	0	904	
6	0	0	0	0	931	
7	0	0	0	0	958	
8	0	0	0	0	981	
9	0	0	0	0	998	
10	0	0	0	0	1012	
11	0	0	0	0	1020	
12	0	0	0	0	1022	
13	0	0	0	0	1022	
14	0	0	0	0	1021	
15	0	0	0	0	1013	
0	0	0	0	0	1001	
1	0	0	0	0	983	
2	0	0	0	0	960	
3	0	0	0	0	930	
4	0	0	0	0	896	
5	0	0	0	0	854	
6	0	0	0	0	806	
7	0	0	0	0	753	
8	0	0	0	0	699	
9	0	0	0	0	650	
10	0	0	0	0	605	
11	0	0	0	0	567	
12	0	0	0	0	534	
13	0	0	0	0	506	
14	0	0	0	0	482	
15	0	0	0	0	464	
0	0	0	0	0	448	
1	0	0	0	0	439	
2	0	0	0	0	432	
3	0	0	0	0	423	
4	0	0	0	0	415	
5	0	0	0	0	407	
6	0	0	0	0	402	
7	0	0	0	0	397	
8	0	0	0	0	393	
9	0	0	0	0	391	
10	0	0	0	0	389	
11	0	0	0	0	391	
12	0	0	0	0	391	
13	0	0	0	0	392	
14	0	0	0	0	393	
15	0	0	0	0	394	
0	0	0	0	0	396	
1	0	0	0	0	400	
2	0	0	0	0	402	
3	0	0	0	0	405	
4	0	0	0	0	408	
5	0	0	0	0	409	
6	0	0	0	0	412	
7	0	0	0	0	414	
8	0	0	0	0	415	
9	0	0	0	0	415	
10	0	0	0	0	416	
11	0	0	0	0	415	
12	0	0	0	0	415	
13	0	0	0	0	415	
14	0	0	0	0	415	
15	0	0	0	0	415	
0	0	0	0	0	415	
1	0	0	0	0	415	
2	0	0	0	0	415	
3	0	0	0	0	414	
4	0	0	0	0	413	
5	0	0	0	0	414	
6	0	0	0	0	415	
7	0	0	0	0	416	
8	0	0	0	0	415	
9	0	0	0	0	416	
10	0	0	0	0	417	
11	0	0	0	0	418	
12	0	0	0	0	419	
13	0	0	0	0	419	
14	0	0	0	0	420	
15	0	0	0	0	421	
0	0	0	0	0	421	
1	0	0	0	0	423	
2	0	0	0	0	425	
3	0	0	0	0	426	
4	0	0	0	0	427	
5	0	0	0	0	427	
6	0	0	0	0	426	
7	0	0	0	0	426	
8	0	0	0	0	426	
9	0	0	0	0	427	
10	0	0	0	0	428	
11	0	0	0	0	428	
12	0	0	0	0	428	
13	0	0	0	0	428	
14	0	0	0	0	431	
15	0	0	0	0	433	
0	0	0	0	0	434	
1	0	0	0	0	436	
2	0	0	0	0	437	
3	0	0	0	0	438	
4	0	0	0	0	439	
5	0	0	0	0	440	
6	0	0	0	0	441	
7	0	0	0	0	443	
8	0	0	0	0	443	
9	0	0	0	0	444	
10	0	0	0	0	446	
11	0	0	0	0	447	
12	0	0	0	0	449	
13	0	0	0	0	451	
14	0	0	0	0	454	
15	0	0	0	0	455	
0	0	0	0	0	455	
1	0	0	0	0	456	
2	0	0	0	0	455	
3	0	0	0	0	457	
4	0	0	0	0	458	
5	0	0	0	0	457	
6	0	0	0	0	457	
7	0	0	0	0	457	
8	0	0	0	0	459	
9	0	0	0	0	460	
10	0	0	0	0	460	
11	0	0	0	0	461	
12	0	0	0	0	462	
13	0	0	0	0	462	
14	0	0	0	0	463	
15	0	0	0	0	464	
0	0	0	0	0	465	
1	0	0	0	0	466	
2	0	0	0	0	467	
3	0	0	0	0	470	
4	0	0	0	0	471	
5	0	0	0	0	472	
6	0	0	0	0	472	
7	0	0	0	0	474	
8	0	0	0	0	476	
9	0	0	0	0	478	
10	0	0	0	0	479	
11	0	0	0	0	480	
12	0	0	0	0	481	
13	0	0	0	0	483	
14	0	0	0	0	484	
15	0	0	0	0	485	
0	0	0	0	0	485	
1	0	0	0	0	485	
2	0	0	0	0	487	
3	0	0	0	0	487	
4	0	0	0	0	486	
5	0	0	0	0	486	
6	0	0	0	0	486	
7	0	0	0	0	486	
8	0	0	0	0	488	
9	0	0	0	0	490	
10	0	0	0	0	491	
11	0	0	0	0	492	
12	0	0	0	0	492	
13	0	0	0	0	492	
14	0	0	0	0	493	
15	0	0	0	0	494	
0	0	0	0	0	494	
1	0	0	0	0	494	
2	0	0	0	0	494	
3	0	0	0	0	495	
4	0	0	0	0	495	
5	0	0	0	0	497	
6	0	0	0	0	498	
7	0	0	0	0	499	
8	0	0	0	0	498	
9	0	0	0	0	499	
10	0	0	0	0	501	
11	0	0	0	0	503	
12	0	0	0	0	504	
13	0	0	0	0	505	
14	0	0	0	0	505	
15	0	0	0	0	505	
0	0	0	0	0	505	
1	0	0	0	0	505	
2	0	0	0	0	507	
3	0	0	0	0	507	
4	0	0	0	0	507	
5	0	0	0	0	508	
6	0	0	0	0	508	
7	0	0	0	0	508	
8	0	0	0	0	509	
9	0	0	0	0	510	
10	0	0	0	0	509	
11	0	0	0	0	510	
12	0	0	0	0	511	
13	0	0	0	0	512	
14	0	0	0	0	514	
15	0	0	0	0	516	
0	0	0	0	0	516	
1	0	0	0	0	517	
2	0	0	0	0	518	
3	0	0	0	0	519	
4	0	0	0	0	519	
5	0	0	0	0	519	
6	0	0	0	0	519	
7	0	0	0	0	519	
8	0	0	0	0	519	
9	0	0	0	0	519	
10	0	0	0	0	519	
11	0	0	0	0	518	
12	0	0	0	0	518	
13	0	0	0	0	519	
14	0	0	0	0	520	
15	0	0	0	0	519	
0	0	0	0	0	519	
1	0	0	0	0	520	
2	0	0	0	0	521	
3	0	0	0	0	522	
4	0	0	0	0	523	
5	0	0	0	0	523	
6	0	0	0	0	524	
7	0	0	0	0	524	
8	0	0	0	0	524	
9	0	0	0	0	523	
10	0	0	0	0	523	
11	0	0	0	0	523	
12	0	0	0	0	523	
13	0	0	0	0	523	
14	0	0	0	0	523	
15	0	0	0	0	523	
0	0	0	0	0	523	
1	0	0	0	0	523	
2	0	0	0	0	524	
3	0	0	0	0	523	
4	0	0	0	0	524	
5	0	0	0	0	525	
6	0	0	0	0	525	
7	0	0	0	0	525	
8	0	0	0	0	525	
9	0	0	0	0	525	
10	0	0	0	0	525	
11	0	0	0	0	526	
12	0	0	0	0	526	
13	0	0	0	0	526	
14	0	0	0	0	525	
15	0	0	0	0	524	
0	0	0	0	0	523	
1	0	0	0	0	522	
2	0	0	0	0	522	
3	0	0	0	0	521	
4	0	0	0	0	522	
5	0	0	0	0	523	
6	0	0	0	0	524	
7	0	0	0	0	524	
8	0	0	0	0	524	
9	0	0	0	0	524	
10	0	0	0	0	524	
11	0	0	0	0	524	
12	0	0	0	0	525	
13	0	0	0	0	526	
14	0	0	0	0	526	
15	0	0	0	0	526	
0	0	0	0	0	525	
1	0	0	0	0	524	
2	0	0	0	0	524	
3	0	0	0	0	524	
4	0	0	0	0	523	
5	0	0	0	0	523	
6	0	0	0	0	523	
7	0	0	0	0	523	
8	0	0	0	0	524	
9	0	0	0	0	525	
10	0	0	0	0	527	
11	0	0	0	0	526	
12	0	0	0	0	524	
13	0	0	0	0	525	
14	0	0	0	0	524	
15	0	0	0	0	524	
0	0	0	0	0	523	
1	0	0	0	0	521	
2	0	0	0	0	521	
3	0	0	0	0	522	
4	0	0	0	0	522	
5	0	0	0	0	521	
6	0	0	0	0	519	
7	0	0	0	0	516	
8	0	0	0	0	514	
9	0	0	0	0	512	
10	0	0	0	0	511	
11	0	0	0	0	510	
12	0	0	0	0	509	
13	0	0	0	0	508	
14	0	0	0	0	506	
15	0	0	0	0	505	
0	0	0	0	0	505	
1	0	0	0	0	505	
2	0	0	0	0	505	
3	0	0	0	0	506	
4	0	0	0	0	505	
5	0	0	0	0	503	
6	0	0	0	0	501	
7	0	0	0	0	499	
8	0	0	0	0	497	
9	0	0	0	0	496	
10	0	0	0	0	496	
11	0	0	0	0	494	
12	0	0	0	0	492	
13	0	0	0	0	491	
14	0	0	0	0	489	
15	0	0	0	0	489	
0	0	0	0	0	489	
1	0	0	0	0	488	
2	0	0	0	0	486	
3	0	0	0	0	483	
4	0	0	0	0	482	
5	0	0	0	0	481	
6	0	0	0	0	481	
7	0	0	0	0	481	
8	0	0	0	0	481	
9	0	0	0	0	481	
10	0	0	0	0	480	
11	0	0	0	0	479	
12	0	0	0	0	478	
13	0	0	0	0	477	
14	0	0	0	0	478	
15	0	0	0	0	477	
0	0	0	0	0	476	
1	0	0	0	0	475	
2	0	0	0	0	475	
3	0	0	0	0	474	
4	0	0	0	0	474	
5	0	0	0	0	474	
6	0	0	0	0	474	
7	0	0	0	0	474	
8	0	0	0	0	474	
9	0	0	0	0	474	
10	0	0	0	0	474	
11	0	0	0	0	473	
12	0	0	0	0	473	
13	0	0	0	0	473	
14	0	0	0	0	472	
15	0	0	0	0	471	
0	0	0	0	0	470	
1	0	0	0	0	469	
2	0	0	0	0	469	
3	0	0	0	0	469	
4	0	0	0	0	468	
5	0	0	0	0	469	
6	0	0	0	0	469	
7	0	0	0	0	470	
8	0	0	0	0	470	
9	0	0	0	0	470	
10	0	0	0	0	471	
11	0	0	0	0	471	
12	0	0	0	0	471	
13	0	0	0	0	472	
14	0	0	0	0	472	
15	0	0	0	0	473	
0	0	0	0	0	473	
1	0	0	0	0	473	
2	0	0	0	0	473	
3	0	0	0	0	474	
4	0	0	0	0	475	
5	0	0	0	0	477	
6	0	0	0	0	477	
7	0	0	0	0	477	
8	0	0	0	0	478	
9	0	0	0	0	480	
10	0	0	0	0	481	
11	0	0	0	0	482	
12	0	0	0	0	483	
13	0	0	0	0	483	
14	0	0	0	0	483	
15	0	0	0	0	484	
0	0	0	0	0	486	
1	0	0	0	0	486	
2	0	0	0	0	487	
3	0	0	0	0	487	
4	0	0	0	0	487	
5	0	0	0	0	486	
6	0	0	0	0	487	
7	0	0	0	0	487	
8	0	0	0	0	488	
9	0	0	0	0	489	
10	0	0	0	0	490	
11	0	0	0	0	491	
12	0	0	0	0	492	
13	0	0	0	0	493	
14	0	0	0	0	495	
15	0	0	0	0	496	
0	0	0	0	0	496	
1	0	0	0	0	498	
2	0	0	0	0	500	
3	0	0	0	0	500	
4	0	0	0	0	501	
5	0	0	0	0	502	
6	0	0	0	0	502	
7	0	0	0	0	502	
8	0	0	0	0	503	
9	0	0	0	0	504	
10	0	0	0	0	504	
11	0	0	0	0	504	
12	0	0	0	0	505	
13	0	0	0	0	507	
14	0	0	0	0	507	
15	0	0	0	0	505	
0	0	0	0	0	505	
1	0	0	0	0	506	
2	0	0	0	0	507	
3	0	0	0	0	508	
4	0	0	0	0	509	
5	0	0	0	0	510	
6	0	0	0	0	511	
7	0	0	0	0	512	
8	0	0	0	0	513	
9	0	0	0	0	512	
10	0	0	0	0	512	
11	0	0	0	0	513	
12	0	0	0	0	513	
13	0	0	0	0	513	
14	0	0	0	0	513	
15	0	0	0	0	513	
0	0	0	0	0	513	
1	0	0	0	0	513	
2	0	0	0	0	514	
3	0	0	0	0	514	
4	0	0	0	0	515	
5	0	0	0	0	515	
6	0	0	0	0	516	
7	0	0	0	0	516	
8	0	0	0	0	516	
9	0	0	0	0	516	
10	0	0	0	0	516	
11	0	0	0	0	517	
12	0	0	0	0	518	
13	0	0	0	0	519	
14	0	0	0	0	521	
15	0	0	0	0	521	
0	0	0	0	0	521	
1	0	0	0	0	520	
2	0	0	0	0	520	
3	0	0	0	0	520	
4	0	0	0	0	521	
5	0	0	0	0	521	
6	0	0	0	0	522	
7	0	0	0	0	522	
8	0	0	0	0	521	
9	0	0	0	0	522	
10	0	0	0	0	521	
11	0	0	0	0	520	
12	0	0	0	0	520	
13	0	0	0	0	519	
14	0	0	0	0	517	
15	0	0	0	0	516	
0	0	0	0	0	517	
1	0	0	0	0	517	
2	0	0	0	0	516	
3	0	0	0	0	517	
4	0	0	0	0	516	
5	0	0	0	0	515	
6	0	0	0	0	515	
7	0	0	0	0	516	
8	0	0	0	0	516	
9	0	0	0	0	516	
10	0	0	0	0	518	
11	0	0	0	0	517	
12	0	0	0	0	516	
13	0	0	0	0	515	
14	0	0	0	0	514	
15	0	0	0	0	514	
0	0	0	0	0	514	
1	0	0	0	0	514	
2	0	0	0	0	515	
3	0	0	0	0	517	
4	0	0	0	0	518	
5	0	0	0	0	519	
6	0	0	0	0	519	
7	0	0	0	0	518	
8	0	0	0	0	518	
9	0	0	0	0	518	
10	0	0	0	0	518	
11	0	0	0	0	517	
12	0	0	0	0	517	
13	0	0	0	0	516	
14	0	0	0	0	514	
15	0	0	0	0	512	
0	0	0	0	0	511	
1	0	0	0	0	511	
2	0	0	0	0	510	
3	0	0	0	0	510	
4	0	0	0	0	510	
5	0	0	0	0	510	
6	0	0	0	0	511	
7	0	0	0	0	511	
8	0	0	0	0	512	
9	0	0	0	0	512	
10	0	0	0	0	511	
11	0	0	0	0	512	
12	0	0	0	0	511	
13	0	0	0	0	511	
14	0	0	0	0	512	
15	0	0	0	0	511	
0	0	0	0	0	511	
1	0	0	0	0	510	
2	0	0	0	0	508	
3	0	0	0	0	509	
4	0	0	0	0	509	
5	0	0	0	0	510	
6	0	0	0	0	510	
7	0	0	0	0	511	
8	0	0	0	0	510	
9	0	0	0	0	510	
10	0	0	0	0	509	
11	0	0	0	0	509	
12	0	0	0	0	510	
13	0	0	0	0	511	
14	0	0	0	0	511	
15	0	0	0	0	511	
0	0	0	0	0	511	
1	0	0	0	0	511	
2	0	0	0	0	511	
3	0	0	0	0	510	
4	0	0	0	0	509	
5	0	0	0	0	508	
6	0	0	0	0	507	
7	0	0	0	0	507	
8	0	0	0	0	508	
9	0	0	0	0	509	
10	0	0	0	0	509	
11	0	0	0	0	510	
12	0	0	0	0	511	
13	0	0	0	0	511	
14	0	0	0	0	512	
15	0	0	0	0	512	
0	0	0	0	0	513	
1	0	0	0	0	513	
2	0	0	0	0	513	
3	0	0	0	0	513	
4	0	0	0	0	514	
5	0	0	0	0	513	
6	0	0	0	0	513	
7	0	0	0	0	512	
8	0	0	0	0	512	
9	0	0	0	0	511	
10	0	0	0	0	510	
11	0	0	0	0	510	
12	0	0	0	0	511	
13	0	0	0	0	510	
14	0	0	0	0	510	
15	0	0	0	0	508	
0	0	0	0	0	510	
1	0	0	0	0	511	
2	0	0	0	0	511	
3	0	0	0	0	512	
4	0	0	0	0	513	
5	0	0	0	0	514	
6	0	0	0	0	515	
7	0	0	0	0	516	
8	0	0	0	0	516	
9	0	0	0	0	515	
10	0	0	0	0	513	
11	0	0	0	0	512	
12	0	0	0	0	512	
13	0	0	0	0	510	
14	0	0	0	0	511	
15	0	0	0	0	511	
0	0	0	0	0	510	
1	0	0	0	0	510	
2	0	0	0	0	511	
3	0	0	0	0	512	
4	0	0	0	0	513	
5	0	0	0	0	512	
6	0	0	0	0	512	
7	0	0	0	0	511	
8	0	0	0	0	512	
9	0	0	0	0	512	
10	0	0	0	0	511	
11	0	0	0	0	512	
12	0	0	0	0	512	
13	0	0	0	0	511	
14	0	0	0	0	511	
15	0	0	0	0	512	
0	0	0	0	0	512	
1	0	0	0	0	512	
2	0	0	0	0	512	
3	0	0	0	0	513	
4	0	0	0	0	514	
5	0	0	0	0	512	
6	0	0	0	0	511	
7	0	0	0	0	512	
8	0	0	0	0	513	
9	0	0	0	0	512	
10	0	0	0	0	512	
11	0	0	0	0	512	
12	0	0	0	0	513	
13	0	0	0	0	513	
14	0	0	0	0	512	
15	0	0	0	0	512	
0	0	0	0	0	512	
1	0	0	0	0	511	
2	0	0	0	0	510	
3	0	0	0	0	511	
4	0	0	0	0	512	
5	0	0	0	0	514	
6	0	0	0	0	515	
7	0	0	0	0	515	
8	0	0	0	0	516	
9	0	0	0	0	515	
10	0	0	0	0	516	
11	0	0	0	0	515	
12	0	0	0	0	515	
13	0	0	0	0	514	
14	0	0	0	0	514	
15	0	0	0	0	514	
0	0	0	0	0	514	
1	0	0	0	0	514	
2	0	0	0	0	514	
3	0	0	0	0	515	
4	0	0	0	0	517	
5	0	0	0	0	518	
6	0	0	0	0	517	
7	0	0	0	0	516	
8	0	0	0	0	516	
9	0	0	0	0	516	
10	0	0	0	0	515	
11	0	0	0	0	515	
12	0	0	0	0	516	
13	0	0	0	0	517	
14	0	0	0	0	518	
15	0	0	0	0	518	
0	0	0	0	0	519	
1	0	0	0	0	518	
2	0	0	0	0	519	
3	0	0	0	0	519	
4	0	0	0	0	519	
5	0	0	0	0	520	
6	0	0	0	0	520	
7	0	0	0	0	520	
8	0	0	0	0	519	
9	0	0	0	0	519	
10	0	0	0	0	519	
11	0	0	0	0	518	
12	0	0	0	0	519	
13	0	0	0	0	519	
14	0	0	0	0	519	
15	0	0	0	0	519	
0	0	0	0	0	519	
1	0	0	0	0	519	
2	0	0	0	0	518	
3	0	0	0	0	519	
4	0	0	0	0	519	
5	0	0	0	0	519	
6	0	0	0	0	519	
7	0	0	0	0	519	
8	0	0	0	0	518	
9	0	0	0	0	518	
10	0	0	0	0	518	
11	0	0	0	0	519	
12	0	0	0	0	517	
13	0	0	0	0	518	
14	0	0	0	0	517	
15	0	0	0	0	518	
0	0	0	0	0	517	
1	0	0	0	0	517	
2	0	0	0	0	518	
3	0	0	0	0	519	
4	0	0	0	0	518	
5	0	0	0	0	519	
6	0	0	0	0	519	
7	0	0	0	0	519	
8	0	0	0	0	520	
9	0	0	0	0	520	
10	0	0	0	0	521	
11	0	0	0	0	520	
12	0	0	0	0	521	
13	0	0	0	0	522	
14	0	0	0	0	523	
15	0	0	0	0	523	
0	0	0	0	0	523	
1	0	0	0	0	524	
2	0	0	0	0	523	
3	0	0	0	0	522	
4	0	0	0	0	521	
5	0	0	0	0	522	
6	0	0	0	0	521	
7	0	0	0	0	519	
8	0	0	0	0	519	
9	0	0	0	0	520	
10	0	0	0	0	520	
11	0	0	0	0	519	
12	0	0	0	0	520	
13	0	0	0	0	520	
14	0	0	0	0	519	
15	0	0	0	0	519	
0	0	0	0	0	519	
1	0	0	0	0	520	
2	0	0	0	0	521	
3	0	0	0	0	521	
4	0	0	0	0	522	
5	0	0	0	0	521	
6	0	0	0	0	519	
7	0	0	0	0	519	
8	0	0	0	0	520	
9	0	0	0	0	520	
10	0	0	0	0	521	
11	0	0	0	0	520	
12	0	0	0	0	521	
13	0	0	0	0	521	
14	0	0	0	0	520	
15	0	0	0	0	520	
0	0	0	0	0	521	
1	0	0	0	0	520	
2	0	0	0	0	520	
3	0	0	0	0	519	
4	0	0	0	0	521	
5	0	0	0	0	523	
6	0	0	0	0	523	
7	0	0	0	0	523	
8	0	0	0	0	523	
9	0	0	0	0	523	
10	0	0	0	0	523	
11	0	0	0	0	522	
12	0	0	0	0	522	
13	0	0	0	0	521	
14	0	0	0	0	521	
15	0	0	0	0	520	
0	0	0	0	0	520	
1	0	0	0	0	520	
2	0	0	0	0	521	
3	0	0	0	0	522	
4	0	0	0	0	523	
5	0	0	0	0	523	
6	0	0	0	0	523	
7	0	0	0	0	523	
8	0	0	0	0	523	
9	0	0	0	0	523	
10	0	0	0	0	524	
11	0	0	0	0	523	
12	0	0	0	0	521	
13	0	0	0	0	522	
14	0	0	0	0	521	
15	0	0	0	0	519	
0	0	0	0	0	518	
1	0	0	0	0	519	
2	0	0	0	0	518	
3	0	0	0	0	517	
4	0	0	0	0	516	
5	0	0	0	0	516	
6	0	0	0	0	517	
7	0	0	0	0	518	
8	0	0	0	0	518	
9	0	0	0	0	519	
10	0	0	0	0	518	
11	0	0	0	0	519	
12	0	0	0	0	522	
13	0	0	0	0	522	
14	0	0	0	0	523	
15	0	0	0	0	524	
0	0	0	0	0	524	
1	0	0	0	0	525	
2	0	0	0	0	525	
3	0	0	0	0	526	
4	0	0	0	0	526	
5	0	0	0	0	526	
6	0	0	0	0	525	
7	0	0	0	0	524	
8	0	0	0	0	524	
9	0	0	0	0	525	
10	0	0	0	0	525	
11	0	0	0	0	525	
12	0	0	0	0	525	
13	0	0	0	0	526	
14	0	0	0	0	526	
15	0	0	0	0	527	
0	0	0	0	0	528	
1	0	0	0	0	529	
2	0	0	0	0	530	
3	0	0	0	0	531	
4	0	0	0	0	532	
5	0	0	0	0	533	
6	0	0	0	0	534	
7	0	0	0	0	536	
8	0	0	0	0	536	
9	0	0	0	0	538	
10	0	0	0	0	538	
11	0	0	0	0	538	
12	0	0	0	0	539	
13	0	0	0	0	539	
14	0	0	0	0	538	
15	0	0	0	0	537	
0	0	0	0	0	535	
1	0	0	0	0	533	
2	0	0	0	0	531	
3	0	0	0	0	529	
4	0	0	0	0	527	
5	0	0	0	0	526	
6	0	0	0	0	526	
7	0	0	0	0	526	
8	0	0	0	0	526	
9	0	0	0	0	527	
10	0	0	0	0	528	
11	0	0	0	0	528	
12	0	0	0	0	530	
13	0	0	0	0	531	
14	0	0	0	0	530	
15	0	0	0	0	530	
0	0	0	0	0	531	
1	0	0	0	0	532	
2	0	0	0	0	533	
3	0	0	0	0	536	
4	0	0	0	0	537	
5	0	0	0	0	536	
6	0	0	0	0	536	
7	0	0	0	0	536	
8	0	0	0	0	537	
9	0	0	0	0	536	
10	0	0	0	0	535	
11	0	0	0	0	533	
12	0	0	0	0	531	
13	0	0	0	0	529	
14	0	0	0	0	526	
15	0	0	0	0	524	
0	0	0	0	0	524	
1	0	0	0	0	523	
2	0	0	0	0	521	
3	0	0	0	0	519	
4	0	0	0	0	516	
5	0	0	0	0	515	
6	0	0	0	0	514	
7	0	0	0	0	514	
8	0	0	0	0	515	
9	0	0	0	0	516	
10	0	0	0	0	517	
11	0	0	0	0	517	
12	0	0	0	0	519	
13	0	0	0	0	519	
14	0	0	0	0	519	
15	0	0	0	0	519	
0	0	0	0	0	518	
1	0	0	0	0	517	
2	0	0	0	0	515	
3	0	0	0	0	515	
4	0	0	0	0	515	
5	0	0	0	0	514	
6	0	0	0	0	513	
7	0	0	0	0	511	
8	0	0	0	0	511	
9	0	0	0	0	511	
10	0	0	0	0	509	
11	0	0	0	0	509	
12	0	0	0	0	508	
13	0	0	0	0	508	
14	0	0	0	0	508	
15	0	0	0	0	509	
0	0	0	0	0	510	
1	0	0	0	0	509	
2	0	0	0	0	509	
3	0	0	0	0	508	
4	0	0	0	0	508	
5	0	0	0	0	508	
6	0	0	0	0	509	
7	0	0	0	0	508	
8	0	0	0	0	508	
9	0	0	0	0	508	
10	0	0	0	0	507	
11	0	0	0	0	506	
12	0	0	0	0	507	
13	0	0	0	0	508	
14	0	0	0	0	508	
15	0	0	0	0	510	
0	0	0	0	0	510	
1	0	0	0	0	510	
2	0	0	0	0	511	
3	0	0	0	0	512	
4	0	0	0	0	513	
5	0	0	0	0	513	
6	0	0	0	0	513	
7	0	0	0	0	512	
8	0	0	0	0	511	
9	0	0	0	0	510	
10	0	0	0	0	510	
11	0	0	0	0	511	
12	0	0	0	0	512	
13	0	0	0	0	514	
14	0	0	0	0	515	
15	0	0	0	0	515	
0	0	0	0	0	513	
1	0	0	0	0	512	
2	0	0	0	0	511	
3	0	0	0	0	510	
4	0	0	0	0	508	
5	0	0	0	0	508	
6	0	0	0	0	508	
7	0	0	0	0	508	
8	0	0	0	0	510	
9	0	0	0	0	512	
10	0	0	0	0	517	
11	0	0	0	0	523	
12	0	0	0	0	528	
13	0	0	0	0	536	
14	0	0	0	0	543	
15	0	0	0	0	553	
0	0	0	0	0	565	
1	0	0	0	0	577	
2	0	0	0	0	590	
3	0	0	0	0	603	
4	0	0	0	0	615	
5	0	0	0	0	629	
6	0	0	0	0	644	
7	0	0	0	0	664	
8	0	0	0	0	686	
9	0	0	0	0	709	
10	0	0	0	0	731	
11	0	0	0	0	752	
12	0	0	0	0	775	
13	0	0	0	0	798	
14	0	0	0	0	824	
15	0	0	0	0	850	
0	0	0	0	0	876	
1	0	0	0	0	902	
2	0	0	0	0	927	
3	0	0	0	0	953	
4	0	0	0	0	977	
5	0	0	0	0	996	
6	0	0	0	0	1010	
7	0	0	0	0	1019	
8	0	0	0	0	1021	
9	0	0	0	0	1020	
10	0	0	0	0	1017	
11	0	0	0	0	1011	
12	0	0	0	0	1001	
13	0	0	0	0	985	
14	0	0	0	0	964	
15	0	0	0	0	935	
0	0	0	0	0	899	
1	0	0	0	0	853	
2	0	0	0	0	802	
3	0	0	0	0	747	
4	0	0	0	0	692	
5	0	0	0	0	641	
6	0	0	0	0	595	
7	0	0	0	0	556	
8	0	0	0	0	522	
9	0	0	0	0	494	
10	0	0	0	0	471	
11	0	0	0	0	452	
12	0	0	0	0	439	
13	0	0	0	0	429	
14	0	0	0	0	421	
15	0	0	0	0	415	
0	0	0	0	0	409	
1	0	0	0	0	403	
2	0	0	0	0	398	
3	0	0	0	0	394	
4	0	0	0	0	393	
5	0	0	0	0	391	
6	0	0	0	0	391	
7	0	0	0	0	391	
8	0	0	0	0	390	
9	0	0	0	0	390	
10	0	0	0	0	389	
11	0	0	0	0	388	
12	0	0	0	0	388	
13	0	0	0	0	388	
14	0	0	0	0	388	
15	0	0	0	0	391	
0	0	0	0	0	396	
1	0	0	0	0	399	
2	0	0	0	0	402	
3	0	0	0	0	404	
4	0	0	0	0	408	
5	0	0	0	0	409	
6	0	0	0	0	409	
7	0	0	0	0	409	
8	0	0	0	0	409	
9	0	0	0	0	411	
10	0	0	0	0	412	
11	0	0	0	0	412	
12	0	0	0	0	412	
13	0	0	0	0	412	
14	0	0	0	0	412	
15	0	0	0	0	412	
0	0	0	0	0	412	
1	0	0	0	0	412	
2	0	0	0	0	412	
3	0	0	0	0	411	
4	0	0	0	0	411	
5	0	0	0	0	410	
6	0	0	0	0	410	
7	0	0	0	0	410	
8	0	0	0	0	411	
9	0	0	0	0	411	
10	0	0	0	0	411	
11	0	0	0	0	411	
12	0	0	0	0	412	
13	0	0	0	0	414	
14	0	0	0	0	416	
15	0	0	0	0	417	
0	0	0	0	0	419	
1	0	0	0	0	421	
2	0	0	0	0	423	
3	0	0	0	0	426	
4	0	0	0	0	427	
5	0	0	0	0	428	
6	0	0	0	0	429	
7	0	0	0	0	429	
8	0	0	0	0	428	
9	0	0	0	0	429	
10	0	0	0	0	430	
11	0	0	0	0	432	
12	0	0	0	0	433	
13	0	0	0	0	434	
14	0	0	0	0	435	
15	0	0	0	0	435	
0	0	0	0	0	437	
1	0	0	0	0	438	
2	0	0	0	0	440	
3	0	0	0	0	441	
4	0	0	0	0	443	
5	0	0	0	0	445	
6	0	0	0	0	445	
7	0	0	0	0	445	
8	0	0	0	0	447	
9	0	0	0	0	448	
10	0	0	0	0	448	
11	0	0	0	0	449	
12	0	0	0	0	451	
13	0	0	0	0	451	
14	0	0	0	0	452	
15	0	0	0	0	454	
0	0	0	0	0	455	
1	0	0	0	0	455	
2	0	0	0	0	455	
3	0	0	0	0	457	
4	0	0	0	0	460	
5	0	0	0	0	461	
6	0	0	0	0	464	
7	0	0	0	0	465	
8	0	0	0	0	466	
9	0	0	0	0	467	
10	0	0	0	0	468	
11	0	0	0	0	470	
12	0	0	0	0	470	
13	0	0	0	0	471	
14	0	0	0	0	472	
15	0	0	0	0	473	
0	0	0	0	0	474	
1	0	0	0	0	474	
2	0	0	0	0	475	
3	0	0	0	0	473	
4	0	0	0	0	473	
5	0	0	0	0	475	
6	0	0	0	0	476	
7	0	0	0	0	477	
8	0	0	0	0	480	
9	0	0	0	0	483	
10	0	0	0	0	484	
11	0	0	0	0	484	
12	0	0	0	0	484	
13	0	0	0	0	485	
14	0	0	0	0	484	
15	0	0	0	0	485	
0	0	0	0	0	485	
1	0	0	0	0	485	
2	0	0	0	0	484	
3	0	0	0	0	484	
4	0	0	0	0	484	
5	0	0	0	0	483	
6	0	0	0	0	483	
7	0	0	0	0	483	
8	0	0	0	0	483	
9	0	0	0	0	485	
10	0	0	0	0	486	
11	0	0	0	0	486	
12	0	0	0	0	487	
13	0	0	0	0	488	
14	0	0	0	0	490	
15	0	0	0	0	491	
0	0	0	0	0	491	
1	0	0	0	0	492	
2	0	0	0	0	492	
3	0	0	0	0	494	
4	0	0	0	0	495	
5	0	0	0	0	495	
6	0	0	0	0	495	
7	0	0	0	0	496	
8	0	0	0	0	497	
9	0	0	0	0	497	
10	0	0	0	0	498	
11	0	0	0	0	499	
12	0	0	0	0	499	
13	0	0	0	0	499	
14	0	0	0	0	499	
15	0	0	0	0	499	
0	0	0	0	0	500	
1	0	0	0	0	501	
2	0	0	0	0	502	
3	0	0	0	0	503	
4	0	0	0	0	504	
5	0	0	0	0	504	
6	0	0	0	0	504	
7	0	0	0	0	504	
8	0	0	0	0	505	
9	0	0	0	0	505	
10	0	0	0	0	505	
11	0	0	0	0	505	
12	0	0	0	0	505	
13	0	0	0	0	507	
14	0	0	0	0	510	
15	0	0	0	0	511	
0	0	0	0	0	512	
1	0	0	0	0	513	
2	0	0	0	0	515	
3	0	0	0	0	516	
4	0	0	0	0	518	
5	0	0	0	0	519	
6	0	0	0	0	519	
7	0	0	0	0	520	
8	0	0	0	0	521	
9	0	0	0	0	523	
10	0	0	0	0	523	
11	0	0	0	0	524	
12	0	0	0	0	524	
13	0	0	0	0	525	
14	0	0	0	0	525	
15	0	0	0	0	525	
0	0	0	0	0	527	
1	0	0	0	0	528	
2	0	0	0	0	529	
3	0	0	0	0	530	
4	0	0	0	0	530	
5	0	0	0	0	531	
6	0	0	0	0	531	
7	0	0	0	0	531	
8	0	0	0	0	531	
9	0	0	0	0	531	
10	0	0	0	0	532	
11	0	0	0	0	532	
12	0	0	0	0	533	
13	0	0	0	0	532	
14	0	0	0	0	533	
15	0	0	0	0	534	
0	0	0	0	0	534	
1	0	0	0	0	533	
2	0	0	0	0	533	
3	0	0	0	0	532	
4	0	0	0	0	533	
5	0	0	0	0	532	
6	0	0	0	0	530	
7	0	0	0	0	529	
8	0	0	0	0	527	
9	0	0	0	0	527	
10	0	0	0	0	526	
11	0	0	0	0	527	
12	0	0	0	0	527	
13	0	0	0	0	528	
14	0	0	0	0	528	
15	0	0	0	0	530	
0	0	0	0	0	531	
1	0	0	0	0	531	
2	0	0	0	0	532	
3	0	0	0	0	533	
4	0	0	0	0	533	
5	0	0	0	0	531	
6	0	0	0	0	531	
7	0	0	0	0	530	
8	0	0	0	0	530	
9	0	0	0	0	529	
10	0	0	0	0	527	
11	0	0	0	0	527	
12	0	0	0	0	527	
13	0	0	0	0	527	
14	0	0	0	0	527	
15	0	0	0	0	527	
0	0	0	0	0	527	
1	0	0	0	0	527	
2	0	0	0	0	527	
3	0	0	0	0	527	
4	0	0	0	0	526	
5	0	0	0	0	526	
6	0	0	0	0	524	
7	0	0	0	0	524	
8	0	0	0	0	524	
9	0	0	0	0	524	
10	0	0	0	0	524	
11	0	0	0	0	523	
12	0	0	0	0	521	
13	0	0	0	0	520	
14	0	0	0	0	519	
15	0	0	0	0	518	
0	0	0	0	0	517	
1	0	0	0	0	516	
2	0	0	0	0	515	
3	0	0	0	0	514	
4	0	0	0	0	513	
5	0	0	0	0	512	
6	0	0	0	0	510	
7	0	0	0	0	507	
8	0	0	0	0	505	
9	0	0	0	0	504	
10	0	0	0	0	503	
11	0	0	0	0	503	
12	0	0	0	0	502	
13	0	0	0	0	502	
14	0	0	0	0	500	
15	0	0	0	0	499	
0	0	0	0	0	497	
1	0	0	0	0	496	
2	0	0	0	0	494	
3	0	0	0	0	494	
4	0	0	0	0	492	
5	0	0	0	0	490	
6	0	0	0	0	491	
7	0	0	0	0	491	
8	0	0	0	0	489	
9	0	0	0	0	486	
10	0	0	0	0	484	
11	0	0	0	0	485	
12	0	0	0	0	485	
13	0	0	0	0	483	
14	0	0	0	0	481	
15	0	0	0	0	479	
0	0	0	0	0	476	
1	0	0	0	0	477	
2	0	0	0	0	478	
3	0	0	0	0	476	
4	0	0	0	0	475	
5	0	0	0	0	474	
6	0	0	0	0	474	
7	0	0	0	0	475	
8	0	0	0	0	475	
9	0	0	0	0	474	
10	0	0	0	0	473	
11	0	0	0	0	474	
12	0	0	0	0	474	
13	0	0	0	0	473	
14	0	0	0	0	473	
15	0	0	0	0	472	
0	0	0	0	0	472	
1	0	0	0	0	474	
2	0	0	0	0	474	
3	0	0	0	0	475	
4	0	0	0	0	474	
5	0	0	0	0	473	
6	0	0	0	0	472	
7	0	0	0	0	472	
8	0	0	0	0	472	
9	0	0	0	0	473	
10	0	0	0	0	473	
11	0	0	0	0	474	
12	0	0	0	0	475	
13	0	0	0	0	474	
14	0	0	0	0	476	
15	0	0	0	0	476	
0	0	0	0	0	477	
1	0	0	0	0	478	
2	0	0	0	0	479	
3	0	0	0	0	479	
4	0	0	0	0	479	
5	0	0	0	0	480	
6	0	0	0	0	479	
7	0	0	0	0	478	
8	0	0	0	0	478	
9	0	0	0	0	477	
10	0	0	0	0	476	
11	0	0	0	0	473	
12	0	0	0	0	472	
13	0	0	0	0	472	
14	0	0	0	0	472	
15	0	0	0	0	473	
0	0	0	0	0	473	
1	0	0	0	0	474	
2	0	0	0	0	476	
3	0	0	0	0	477	
4	0	0	0	0	479	
5	0	0	0	0	480	
6	0	0	0	0	482	
7	0	0	0	0	483	
8	0	0	0	0	482	
9	0	0	0	0	483	
10	0	0	0	0	481	
11	0	0	0	0	481	
12	0	0	0	0	481	
13	0	0	0	0	480	
14	0	0	0	0	482	
15	0	0	0	0	484	
0	0	0	0	0	485	
1	0	0	0	0	484	
2	0	0	0	0	485	
3	0	0	0	0	485	
4	0	0	0	0	487	
5	0	0	0	0	487	
6	0	0	0	0	488	
7	0	0	0	0	489	
8	0	0	0	0	489	
9	0	0	0	0	490	
10	0	0	0	0	493	
11	0	0	0	0	495	
12	0	0	0	0	496	
13	0	0	0	0	496	
14	0	0	0	0	496	
15	0	0	0	0	497	
0	0	0	0	0	497	
1	0	0	0	0	496	
2	0	0	0	0	496	
3	0	0	0	0	498	
4	0	0	0	0	498	
5	0	0	0	0	498	
6	0	0	0	0	499	
7	0	0	0	0	500	
8	0	0	0	0	500	
9	0	0	0	0	501	
10	0	0	0	0	500	
11	0	0	0	0	501	
12	0	0	0	0	503	
13	0	0	0	0	505	
14	0	0	0	0	506	
15	0	0	0	0	508	
0	0	0	0	0	510	
1	0	0	0	0	510	
2	0	0	0	0	510	
3	0	0	0	0	510	
4	0	0	0	0	511	
5	0	0	0	0	511	
6	0	0	0	0	511	
7	0	0	0	0	512	
8	0	0	0	0	513	
9	0	0	0	0	513	
10	0	0	0	0	513	
11	0	0	0	0	514	
12	0	0	0	0	513	
13	0	0	0	0	513	
14	0	0	0	0	512	
15	0	0	0	0	511	
0	0	0	0	0	508	
1	0	0	0	0	508	
2	0	0	0	0	509	
3	0	0	0	0	509	
4	0	0	0	0	508	
5	0	0	0	0	508	
6	0	0	0	0	507	
7	0	0	0	0	508	
8	0	0	0	0	508	
9	0	0	0	0	508	
10	0	0	0	0	510	
11	0	0	0	0	510	
12	0	0	0	0	510	
13	0	0	0	0	511	
14	0	0	0	0	512	
15	0	0	0	0	513	
0	0	0	0	0	514	
1	0	0	0	0	515	
2	0	0	0	0	516	
3	0	0	0	0	515	
4	0	0	0	0	516	
5	0	0	0	0	516	
6	0	0	0	0	517	
7	0	0	0	0	515	
8	0	0	0	0	515	
9	0	0	0	0	515	
10	0	0	0	0	514	
11	0	0	0	0	513	
12	0	0	0	0	513	
13	0	0	0	0	513	
14	0	0	0	0	511	
15	0	0	0	0	511	
0	0	0	0	0	510	
1	0	0	0	0	511	
2	0	0	0	0	511	
3	0	0	0	0	512	
4	0	0	0	0	511	
5	0	0	0	0	513	
6	0	0	0	0	513	
7	0	0	0	0	514	
8	0	0	0	0	515	
9	0	0	0	0	515	
10	0	0	0	0	514	
11	0	0	0	0	514	
12	0	0	0	0	514	
13	0	0	0	0	513	
14	0	0	0	0	513	
15	0	0	0	0	512	
0	0	0	0	0	512	
1	0	0	0	0	511	
2	0	0	0	0	512	
3	0	0	0	0	511	
4	0	0	0	0	511	
5	0	0	0	0	512	
6	0	0	0	0	511	
7	0	0	0	0	511	
8	0	0	0	0	510	
9	0	0	0	0	510	
10	0	0	0	0	510	
11	0	0	0	0	510	
12	0	0	0	0	511	
13	0	0	0	0	511	
14	0	0	0	0	511	
15	0	0	0	0	510	
0	0	0	0	0	509	
1	0	0	0	0	511	
2	0	0	0	0	511	
3	0	0	0	0	511	
4	0	0	0	0	511	
5	0	0	0	0	511	
6	0	0	0	0	512	
7	0	0	0	0	512	
8	0	0	0	0	512	
9	0	0	0	0	512	
10	0	0	0	0	513	
11	0	0	0	0	513	
12	0	0	0	0	513	
13	0	0	0	0	512	
14	0	0	0	0	513	
15	0	0	0	0	512	
0	0	0	0	0	512	
1	0	0	0	0	511	
2	0	0	0	0	511	
3	0	0	0	0	511	
4	0	0	0	0	510	
5	0	0	0	0	510	
6	0	0	0	0	509	
7	0	0	0	0	508	
8	0	0	0	0	508	
9	0	0	0	0	506	
10	0	0	0	0	506	
11	0	0	0	0	504	
12	0	0	0	0	502	
13	0	0	0	0	504	
14	0	0	0	0	504	
15	0	0	0	0	504	
0	0	0	0	0	505	
1	0	0	0	0	504	
2	0	0	0	0	504	
3	0	0	0	0	505	
4	0	0	0	0	508	
5	0	0	0	0	508	
6	0	0	0	0	511	
7	0	0	0	0	511	
8	0	0	0	0	511	
9	0	0	0	0	510	
10	0	0	0	0	510	
11	0	0	0	0	510	
12	0	0	0	0	509	
13	0	0	0	0	509	
14	0	0	0	0	508	
15	0	0	0	0	506	
0	0	0	0	0	505	
1	0	0	0	0	506	
2	0	0	0	0	506	
3	0	0	0	0	508	
4	0	0	0	0	509	
5	0	0	0	0	510	
6	0	0	0	0	511	
7	0	0	0	0	512	
8	0	0	0	0	512	
9	0	0	0	0	512	
10	0	0	0	0	513	
11	0	0	0	0	513	
12	0	0	0	0	513	
13	0	0	0	0	513	
14	0	0	0	0	512	
15	0	0	0	0	512	
0	0	0	0	0	512	
1	0	0	0	0	513	
2	0	0	0	0	512	
3	0	0	0	0	512	
4	0	0	0	0	513	
5	0	0	0	0	513	
6	0	0	0	0	513	
7	0	0	0	0	513	
8	0	0	0	0	515	
9	0	0	0	0	515	
10	0	0	0	0	515	
11	0	0	0	0	515	
12	0	0	0	0	516	
13	0	0	0	0	515	
14	0	0	0	0	514	
15	0	0	0	0	513	
0	0	0	0	0	513	
1	0	0	0	0	512	
2	0	0	0	0	511	
3	0	0	0	0	511	
4	0	0	0	0	511	
5	0	0	0	0	510	
6	0	0	0	0	509	
7	0	0	0	0	508	
8	0	0	0	0	508	
9	0	0	0	0	508	
10	0	0	0	0	508	
11	0	0	0	0	508	
12	0	0	0	0	508	
13	0	0	0	0	509	
14	0	0	0	0	509	
15	0	0	0	0	509	
0	0	0	0	0	510	
1	0	0	0	0	510	
2	0	0	0	0	510	
3	0	0	0	0	511	
4	0	0	0	0	511	
5	0	0	0	0	511	
6	0	0	0	0	511	
7	0	0	0	0	511	
8	0	0	0	0	510	
9	0	0	0	0	510	
10	0	0	0	0	510	
11	0	0	0	0	510	
12	0	0	0	0	509	
13	0	0	0	0	508	
14	0	0	0	0	507	
15	0	0	0	0	506	
0	0	0	0	0	506	
1	0	0	0	0	505	
2	0	0	0	0	505	
3	0	0	0	0	504	
4	0	0	0	0	505	
5	0	0	0	0	505	
6	0	0	0	0	506	
7	0	0	0	0	507	
8	0	0	0	0	507	
9	0	0	0	0	508	
10	0	0	0	0	508	
11	0	0	0	0	509	
12	0	0	0	0	510	
13	0	0	0	0	511	
14	0	0	0	0	511	
15	0	0	0	0	511	
0	0	0	0	0	511	
1	0	0	0	0	510	
2	0	0	0	0	510	
3	0	0	0	0	510	
4	0	0	0	0	510	
5	0	0	0	0	510	
6	0	0	0	0	509	
7	0	0	0	0	508	
8	0	0	0	0	510	
9	0	0	0	0	509	
10	0	0	0	0	509	
11	0	0	0	0	509	
12	0	0	0	0	508	
13	0	0	0	0	508	
14	0	0	0	0	507	
15	0	0	0	0	507	
0	0	0	0	0	507	
1	0	0	0	0	507	
2	0	0	0	0	506	
3	0	0	0	0	507	
4	0	0	0	0	507	
5	0	0	0	0	508	
6	0	0	0	0	509	
7	0	0	0	0	510	
8	0	0	0	0	511	
9	0	0	0	0	511	
10	0	0	0	0	512	
11	0	0	0	0	513	
12	0	0	0	0	513	
13	0	0	0	0	513	
14	0	0	0	0	514	
15	0	0	0	0	513	
0	0	0	0	0	512	
1	0	0	0	0	511	
2	0	0	0	0	510	
3	0	0	0	0	508	
4	0	0	0	0	507	
5	0	0	0	0	505	
6	0	0	0	0	505	
7	0	0	0	0	508	
8	0	0	0	0	509	
9	0	0	0	0	511	
10	0	0	0	0	512	
11	0	0	0	0	514	
12	0	0	0	0	515	
13	0	0	0	0	517	
14	0	0	0	0	519	
15	0	0	0	0	519	
0	0	0	0	0	521	
1	0	0	0	0	522	
2	0	0	0	0	522	
3	0	0	0	0	522	
4	0	0	0	0	522	
5	0	0	0	0	521	
6	0	0	0	0	521	
7	0	0	0	0	521	
8	0	0	0	0	521	
9	0	0	0	0	520	
10	0	0	0	0	520	
11	0	0	0	0	520	
12	0	0	0	0	520	
13	0	0	0	0	521	
14	0	0	0	0	522	
15	0	0	0	0	523	
0	0	0	0	0	523	
1	0	0	0	0	523	
2	0	0	0	0	523	
3	0	0	0	0	524	
4	0	0	0	0	524	
5	0	0	0	0	525	
6	0	0	0	0	526	
7	0	0	0	0	527	
8	0	0	0	0	527	
9	0	0	0	0	527	
10	0	0	0	0	527	
11	0	0	0	0	526	
12	0	0	0	0	527	
13	0	0	0	0	525	
14	0	0	0	0	525	
15	0	0	0	0	525	
0	0	0	0	0	525	
1	0	0	0	0	526	
2	0	0	0	0	527	
3	0	0	0	0	527	
4	0	0	0	0	527	
5	0	0	0	0	527	
6	0	0	0	0	526	
7	0	0	0	0	525	
8	0	0	0	0	526	
9	0	0	0	0	528	
10	0	0	0	0	529	
11	0	0	0	0	530	
12	0	0	0	0	531	
13	0	0	0	0	531	
14	0	0	0	0	531	
15	0	0	0	0	532	
0	0	0	0	0	534	
1	0	0	0	0	533	
2	0	0	0	0	531	
3	0	0	0	0	531	
4	0	0	0	0	529	
5	0	0	0	0	527	
6	0	0	0	0	527	
7	0	0	0	0	525	
8	0	0	0	0	524	
9	0	0	0	0	522	
10	0	0	0	0	521	
11	0	0	0	0	520	
12	0	0	0	0	520	
13	0	0	0	0	521	
14	0	0	0	0	522	
15	0	0	0	0	523	
0	0	0	0	0	524	
1	0	0	0	0	524	
2	0	0	0	0	526	
3	0	0	0	0	525	
4	0	0	0	0	526	
5	0	0	0	0	527	
6	0	0	0	0	527	
7	0	0	0	0	528	
8	0	0	0	0	528	
9	0	0	0	0	529	
10	0	0	0	0	529	
11	0	0	0	0	529	
12	0	0	0	0	528	
13	0	0	0	0	527	
14	0	0	0	0	525	
15	0	0	0	0	524	
0	0	0	0	0	522	
1	0	0	0	0	520	
2	0	0	0	0	519	
3	0	0	0	0	516	
4	0	0	0	0	515	
5	0	0	0	0	514	
6	0	0	0	0	514	
7	0	0	0	0	513	
8	0	0	0	0	513	
9	0	0	0	0	513	
10	0	0	0	0	513	
11	0	0	0	0	511	
12	0	0	0	0	510	
13	0	0	0	0	509	
14	0	0	0	0	510	
15	0	0	0	0	511	
0	0	0	0	0	511	
1	0	0	0	0	510	
2	0	0	0	0	510	
3	0	0	0	0	511	
4	0	0	0	0	510	
5	0	0	0	0	510	
6	0	0	0	0	510	
7	0	0	0	0	510	
8	0	0	0	0	510	
9	0	0	0	0	509	
10	0	0	0	0	508	
11	0	0	0	0	508	
12	0	0	0	0	507	
13	0	0	0	0	507	
14	0	0	0	0	507	
15	0	0	0	0	507	
0	0	0	0	0	506	
1	0	0	0	0	505	
2	0	0	0	0	505	
3	0	0	0	0	505	
4	0	0	0	0	504	
5	0	0	0	0	504	
6	0	0	0	0	505	
7	0	0	0	0	505	
8	0	0	0	0	505	
9	0	0	0	0	505	
10	0	0	0	0	505	
11	0	0	0	0	504	
12	0	0	0	0	505	
13	0	0	0	0	506	
14	0	0	0	0	507	
15	0	0	0	0	507	
0	0	0	0	0	507	
1	0	0	0	0	506	
2	0	0	0	0	505	
3	0	0	0	0	504	
4	0	0	0	0	505	
5	0	0	0	0	505	
6	0	0	0	0	506	
7	0	0	0	0	508	
8	0	0	0	0	508	
9	0	0	0	0	508	
10	0	0	0	0	508	
11	0	0	0	0	508	
12	0	0	0	0	508	
13	0	0	0	0	509	
14	0	0	0	0	509	
15	0	0	0	0	511	
0	0	0	0	0	511	
1	0	0	0	0	511	
2	0	0	0	0	510	
3	0	0	0	0	510	
4	0	0	0	0	508	
5	0	0	0	0	507	
6	0	0	0	0	505	
7	0	0	0	0	503	
8	0	0	0	0	502	
9	0	0	0	0	502	
10	0	0	0	0	500	
11	0	0	0	0	500	
12	0	0	0	0	499	
13	0	0	0	0	500	
14	0	0	0	0	503	
15	0	0	0	0	508	
0	0	0	0	0	515	
1	0	0	0	0	523	
2	0	0	0	0	530	
3	0	0	0	0	540	
4	0	0	0	0	550	
5	0	0	0	0	561	
6	0	0	0	0	575	
7	0	0	0	0	588	
8	0	0	0	0	601	
9	0	0	0	0	615	
10	0	0	0	0	632	
11	0	0	0	0	648	
12	0	0	0	0	667	
13	0	0	0	0	689	
14	0	0	0	0	711	
15	0	0	0	0	733	
0	0	0	0	0	754	
1	0	0	0	0	774	
2	0	0	0	0	799	
3	0	0	0	0	825	
4	0	0	0	0	854	
5	0	0	0	0	880	
6	0	0	0	0	907	
7	0	0	0	0	932	
8	0	0	0	0	956	
9	0	0	0	0	979	
10	0	0	0	0	996	
11	0	0	0	0	1010	
12	0	0	0	0	1019	
13	0	0	0	0	1021	
14	0	0	0	0	1021	
15	0	0	0	0	1017	
0	0	0	0	0	1010	
1	0	0	0	0	1001	
2	0	0	0	0	984	
3	0	0	0	0	963	
4	0	0	0	0	934	
5	0	0	0	0	896	
6	0	0	0	0	851	
7	0	0	0	0	799	
8	0	0	0	0	745	
9	0	0	0	0	691	
10	0	0	0	0	640	
11	0	0	0	0	593	
12	0	0	0	0	551	
13	0	0	0	0	518	
14	0	0	0	0	489	
15	0	0	0	0	466	
0	0	0	0	0	448	
1	0	0	0	0	435	
2	0	0	0	0	428	
3	0	0	0	0	422	
4	0	0	0	0	416	
5	0	0	0	0	412	
6	0	0	0	0	407	
7	0	0	0	0	401	
8	0	0	0	0	396	
9	0	0	0	0	392	
10	0	0	0	0	391	
11	0	0	0	0	391	
12	0	0	0	0	392	
13	0	0	0	0	393	
14	0	0	0	0	393	
15	0	0	0	0	395	
0	0	0	0	0	395	
1	0	0	0	0	394	
2	0	0	0	0	396	
3	0	0	0	0	398	
4	0	0	0	0	401	
5	0	0	0	0	405	
6	0	0	0	0	409	
7	0	0	0	0	412	
8	0	0	0	0	415	
9	0	0	0	0	416	
10	0	0	0	0	417	
11	0	0	0	0	417	
12	0	0	0	0	416	
13	0	0	0	0	416	
14	0	0	0	0	415	
15	0	0	0	0	414	
0	0	0	0	0	415	
1	0	0	0	0	415	
2	0	0	0	0	414	
3	0	0	0	0	413	
4	0	0	0	0	413	
5	0	0	0	0	412	
6	0	0	0	0	412	
7	0	0	0	0	413	
8	0	0	0	0	414	
9	0	0	0	0	414	
10	0	0	0	0	415	
11	0	0	0	0	415	
12	0	0	0	0	414	
13	0	0	0	0	414	
14	0	0	0	0	415	
15	0	0	0	0	417	
0	0	0	0	0	417	
1	0	0	0	0	418	
2	0	0	0	0	420	
3	0	0	0	0	423	
4	0	0	0	0	423	
5	0	0	0	0	423	
6	0	0	0	0	424	
7	0	0	0	0	425	
8	0	0	0	0	427	
9	0	0	0	0	428	
10	0	0	0	0	429	
11	0	0	0	0	430	
12	0	0	0	0	431	
13	0	0	0	0	432	
14	0	0	0	0	432	
15	0	0	0	0	433	
0	0	0	0	0	434	
1	0	0	0	0	435	
2	0	0	0	0	437	
3	0	0	0	0	439	
4	0	0	0	0	439	
5	0	0	0	0	441	
6	0	0	0	0	443	
7	0	0	0	0	444	
8	0	0	0	0	446	
9	0	0	0	0	449	
10	0	0	0	0	451	
11	0	0	0	0	452	
12	0	0	0	0	454	
13	0	0	0	0	455	
14	0	0	0	0	455	
15	0	0	0	0	456	
0	0	0	0	0	457	
1	0	0	0	0	458	
2	0	0	0	0	459	
3	0	0	0	0	458	
4	0	0	0	0	458	
5	0	0	0	0	459	
6	0	0	0	0	459	
7	0	0	0	0	460	
8	0	0	0	0	460	
9	0	0	0	0	462	
10	0	0	0	0	465	
11	0	0	0	0	467	
12	0	0	0	0	470	
13	0	0	0	0	471	
14	0	0	0	0	472	
15	0	0	0	0	473	
0	0	0	0	0	474	
1	0	0	0	0	475	
2	0	0	0	0	476	
3	0	0	0	0	476	
4	0	0	0	0	476	
5	0	0	0	0	476	
6	0	0	0	0	477	
7	0	0	0	0	476	
8	0	0	0	0	476	
9	0	0	0	0	476	
10	0	0	0	0	477	
11	0	0	0	0	478	
12	0	0	0	0	480	
13	0	0	0	0	481	
14	0	0	0	0	482	
15	0	0	0	0	482	
0	0	0	0	0	483	
1	0	0	0	0	484	
2	0	0	0	0	486	
3	0	0	0	0	487	
4	0	0	0	0	487	
5	0	0	0	0	487	
6	0	0	0	0	487	
7	0	0	0	0	488	
8	0	0	0	0	488	
9	0	0	0	0	489	
10	0	0	0	0	491	
11	0	0	0	0	492	
12	0	0	0	0	493	
13	0	0	0	0	493	
14	0	0	0	0	493	
15	0	0	0	0	493	
0	0	0	0	0	494	
1	0	0	0	0	495	
2	0	0	0	0	495	
3	0	0	0	0	497	
4	0	0	0	0	499	
5	0	0	0	0	499	
6	0	0	0	0	501	
7	0	0	0	0	500	
8	0	0	0	0	500	
9	0	0	0	0	500	
10	0	0	0	0	500	
11	0	0	0	0	500	
12	0	0	0	0	501	
13	0	0	0	0	501	
14	0	0	0	0	502	
15	0	0	0	0	502	
0	0	0	0	0	502	
1	0	0	0	0	502	
2	0	0	0	0	504	
3	0	0	0	0	504	
4	0	0	0	0	503	
5	0	0	0	0	504	
6	0	0	0	0	505	
7	0	0	0	0	507	
8	0	0	0	0	508	
9	0	0	0	0	508	
10	0	0	0	0	509	
11	0	0	0	0	509	
12	0	0	0	0	509	
13	0	0	0	0	509	
14	0	0	0	0	509	
15	0	0	0	0	509	
0	0	0	0	0	508	
1	0	0	0	0	508	
2	0	0	0	0	508	
3	0	0	0	0	509	
4	0	0	0	0	509	
5	0	0	0	0	509	
6	0	0	0	0	509	
7	0	0	0	0	510	
8	0	0	0	0	511	
9	0	0	0	0	511	
10	0	0	0	0	513	
11	0	0	0	0	514	
12	0	0	0	0	516	
13	0	0	0	0	516	
14	0	0	0	0	518	
15	0	0	0	0	519	
0	0	0	0	0	519	
1	0	0	0	0	519	
2	0	0	0	0	519	
3	0	0	0	0	520	
4	0	0	0	0	520	
5	0	0	0	0	518	
6	0	0	0	0	519	
7	0	0	0	0	521	
8	0	0	0	0	519	
9	0	0	0	0	519	
10	0	0	0	0	520	
11	0	0	0	0	521	
12	0	0	0	0	521	
13	0	0	0	0	522	
14	0	0	0	0	523	
15	0	0	0	0	524	
0	0	0	0	0	524	
1	0	0	0	0	523	
2	0	0	0	0	525	
3	0	0	0	0	525	
4	0	0	0	0	524	
5	0	0	0	0	524	
6	0	0	0	0	526	
7	0	0	0	0	526	
8	0	0	0	0	526	
9	0	0	0	0	526	
10	0	0	0	0	526	
11	0	0	0	0	524	
12	0	0	0	0	525	
13	0	0	0	0	524	
14	0	0	0	0	524	
15	0	0	0	0	523	
0	0	0	0	0	523	
1	0	0	0	0	523	
2	0	0	0	0	524	
3	0	0	0	0	524	
4	0	0	0	0	526	
5	0	0	0	0	527	
6	0	0	0	0	526	
7	0	0	0	0	526	
8	0	0	0	0	526	
9	0	0	0	0	526	
10	0	0	0	0	525	
11	0	0	0	0	523	
12	0	0	0	0	524	
13	0	0	0	0	524	
14	0	0	0	0	524	
15	0	0	0	0	525	
0	0	0	0	0	525	
1	0	0	0	0	525	
2	0	0	0	0	526	
3	0	0	0	0	526	
4	0	0	0	0	525	
5	0	0	0	0	525	
6	0	0	0	0	524	
7	0	0	0	0	524	
8	0	0	0	0	524	
9	0	0	0	0	524	
10	0	0	0	0	523	
11	0	0	0	0	521	
12	0	0	0	0	520	
13	0	0	0	0	519	
14	0	0	0	0	517	
15	0	0	0	0	516	
0	0	0	0	0	515	
1	0	0	0	0	513	
2	0	0	0	0	512	
3	0	0	0	0	509	
4	0	0	0	0	508	
5	0	0	0	0	505	
6	0	0	0	0	503	
7	0	0	0	0	503	
8	0	0	0	0	502	
9	0	0	0	0	500	
10	0	0	0	0	499	
11	0	0	0	0	498	
12	0	0	0	0	498	
13	0	0	0	0	496	
14	0	0	0	0	494	
15	0	0	0	0	492	
0	0	0	0	0	490	
1	0	0	0	0	487	
2	0	0	0	0	487	
3	0	0	0	0	486	
4	0	0	0	0	486	
5	0	0	0	0	484	
6	0	0	0	0	482	
7	0	0	0	0	481	
8	0	0	0	0	480	
9	0	0	0	0	479	
10	0	0	0	0	478	
11	0	0	0	0	478	
12	0	0	0	0	478	
13	0	0	0	0	477	
14	0	0	0	0	475	
15	0	0	0	0	473	
0	0	0	0	0	472	
1	0	0	0	0	471	
2	0	0	0	0	470	
3	0	0	0	0	469	
4	0	0	0	0	469	
5	0	0	0	0	468	
6	0	0	0	0	467	
7	0	0	0	0	467	
8	0	0	0	0	467	
9	0	0	0	0	465	
10	0	0	0	0	464	
11	0	0	0	0	464	
12	0	0	0	0	463	
13	0	0	0	0	461	
14	0	0	0	0	459	
15	0	0	0	0	458	
0	0	0	0	0	457	
1	0	0	0	0	458	
2	0	0	0	0	456	
3	0	0	0	0	458	
4	0	0	0	0	458	
5	0	0	0	0	457	
6	0	0	0	0	456	
7	0	0	0	0	455	
8	0	0	0	0	455	
9	0	0	0	0	456	
10	0	0	0	0	458	
11	0	0	0	0	459	
12	0	0	0	0	460	
13	0	0	0	0	460	
14	0	0	0	0	461	
15	0	0	0	0	463	
0	0	0	0	0	463	
1	0	0	0	0	462	
2	0	0	0	0	462	
3	0	0	0	0	462	
4	0	0	0	0	462	
5	0	0	0	0	462	
6	0	0	0	0	463	
7	0	0	0	0	463	
8	0	0	0	0	463	
9	0	0	0	0	463	
10	0	0	0	0	462	
11	0	0	0	0	463	
12	0	0	0	0	465	
13	0	0	0	0	466	
14	0	0	0	0	467	
15	0	0	0	0	467	
0	0	0	0	0	467	
1	0	0	0	0	467	
2	0	0	0	0	467	
3	0	0	0	0	467	
4	0	0	0	0	468	
5	0	0	0	0	467	
6	0	0	0	0	467	
7	0	0	0	0	468	
8	0	0	0	0	468	
9	0	0	0	0	470	
10	0	0	0	0	470	
11	0	0	0	0	470	
12	0	0	0	0	471	
13	0	0	0	0	472	
14	0	0	0	0	472	
15	0	0	0	0	473	
0	0	0	0	0	475	
1	0	0	0	0	475	
2	0	0	0	0	476	
3	0	0	0	0	476	
4	0	0	0	0	476	
5	0	0	0	0	475	
6	0	0	0	0	476	
7	0	0	0	0	476	
8	0	0	0	0	476	
9	0	0	0	0	477	
10	0	0	0	0	477	
11	0	0	0	0	479	
12	0	0	0	0	478	
13	0	0	0	0	478	
14	0	0	0	0	479	
15	0	0	0	0	480	
0	0	0	0	0	483	
1	0	0	0	0	485	
2	0	0	0	0	486	
3	0	0	0	0	487	
4	0	0	0	0	488	
5	0	0	0	0	488	
6	0	0	0	0	488	
7	0	0	0	0	489	
8	0	0	0	0	489	
9	0	0	0	0	490	
10	0	0	0	0	490	
11	0	0	0	0	489	
12	0	0	0	0	490	
13	0	0	0	0	490	
14	0	0	0	0	489	
15	0	0	0	0	489	
0	0	0	0	0	490	
1	0	0	0	0	491	
2	0	0	0	0	492	
3	0	0	0	0	494	
4	0	0	0	0	495	
5	0	0	0	0	495	
6	0	0	0	0	496	
7	0	0	0	0	496	
8	0	0	0	0	496	
9	0	0	0	0	497	
10	0	0	0	0	497	
11	0	0	0	0	497	
12	0	0	0	0	498	
13	0	0	0	0	499	
14	0	0	0	0	499	
15	0	0	0	0	499	
0	0	0	0	0	500	
1	0	0	0	0	501	
2	0	0	0	0	501	
3	0	0	0	0	503	
4	0	0	0	0	504	
5	0	0	0	0	505	
6	0	0	0	0	506	
7	0	0	0	0	508	
8	0	0	0	0	508	
9	0	0	0	0	508	
10	0	0	0	0	508	
11	0	0	0	0	508	
12	0	0	0	0	507	
13	0	0	0	0	508	
14	0	0	0	0	508	
15	0	0	0	0	508	
0	0	0	0	0	508	
1	0	0	0	0	508	
2	0	0	0	0	508	
3	0	0	0	0	508	
4	0	0	0	0	508	
5	0	0	0	0	508	
6	0	0	0	0	508	
7	0	0	0	0	508	
8	0	0	0	0	507	
9	0	0	0	0	508	
10	0	0	0	0	508	
11	0	0	0	0	508	
12	0	0	0	0	510	
13	0	0	0	0	512	
14	0	0	0	0	513	
15	0	0	0	0	514	
0	0	0	0	0	514	
1	0	0	0	0	515	
2	0	0	0	0	515	
3	0	0	0	0	515	
4	0	0	0	0	516	
5	0	0	0	0	516	
6	0	0	0	0	516	
7	0	0	0	0	515	
8	0	0	0	0	513	
9	0	0	0	0	512	
10	0	0	0	0	512	
11	0	0	0	0	511	
12	0	0	0	0	511	
13	0	0	0	0	510	
14	0	0	0	0	510	
15	0	0	0	0	511	
0	0	0	0	0	512	
1	0	0	0	0	511	
2	0	0	0	0	511	
3	0	0	0	0	511	
4	0	0	0	0	510	
5	0	0	0	0	510	
6	0	0	0	0	510	
7	0	0	0	0	509	
8	0	0	0	0	509	
9	0	0	0	0	508	
10	0	0	0	0	508	
11	0	0	0	0	509	
12	0	0	0	0	508	
13	0	0	0	0	509	
14	0	0	0	0	510	
15	0	0	0	0	509	
0	0	0	0	0	508	
1	0	0	0	0	508	
2	0	0	0	0	508	
3	0	0	0	0	509	
4	0	0	0	0	508	
5	0	0	0	0	506	
6	0	0	0	0	506	
7	0	0	0	0	506	
8	0	0	0	0	505	
9	0	0	0	0	504	
10	0	0	0	0	503	
11	0	0	0	0	504	
12	0	0	0	0	506	
13	0	0	0	0	505	
14	0	0	0	0	505	
15	0	0	0	0	504	
0	0	0	0	0	503	
1	0	0	0	0	504	
2	0	0	0	0	503	
3	0	0	0	0	504	
4	0	0	0	0	504	
5	0	0	0	0	504	
6	0	0	0	0	505	
7	0	0	0	0	506	
8	0	0	0	0	506	
9	0	0	0	0	506	
10	0	0	0	0	505	
11	0	0	0	0	505	
12	0	0	0	0	503	
13	0	0	0	0	503	
14	0	0	0	0	502	
15	0	0	0	0	501	
0	0	0	0	0	500	
1	0	0	0	0	500	
2	0	0	0	0	501	
3	0	0	0	0	501	
4	0	0	0	0	502	
5	0	0	0	0	503	
6	0	0	0	0	503	
7	0	0	0	0	503	
8	0	0	0	0	504	
9	0	0	0	0	505	
10	0	0	0	0	505	
11	0	0	0	0	506	
12	0	0	0	0	507	
13	0	0	0	0	506	
14	0	0	0	0	506	
15	0	0	0	0	507	
0	0	0	0	0	508	
1	0	0	0	0	507	
2	0	0	0	0	507	
3	0	0	0	0	507	
4	0	0	0	0	508	
5	0	0	0	0	508	
6	0	0	0	0	508	
7	0	0	0	0	508	
8	0	0	0	0	509	
9	0	0	0	0	509	
10	0	0	0	0	510	
11	0	0	0	0	511	
12	0	0	0	0	511	
13	0	0	0	0	512	
14	0	0	0	0	512	
15	0	0	0	0	512	
0	0	0	0	0	512	
1	0	0	0	0	512	
2	0	0	0	0	510	
3	0	0	0	0	511	
4	0	0	0	0	511	
5	0	0	0	0	510	
6	0	0	0	0	510	
7	0	0	0	0	511	
8	0	0	0	0	511	
9	0	0	0	0	511	
10	0	0	0	0	511	
11	0	0	0	0	511	
12	0	0	0	0	510	
13	0	0	0	0	510	
14	0	0	0	0	509	
15	0	0	0	0	510	
0	0	0	0	0	510	
1	0	0	0	0	510	
2	0	0	0	0	510	
3	0	0	0	0	510	
4	0	0	0	0	510	
5	0	0	0	0	512	
6	0	0	0	0	512	
7	0	0	0	0	512	
8	0	0	0	0	513	
9	0	0	0	0	514	
10	0	0	0	0	515	
11	0	0	0	0	516	
12	0	0	0	0	517	
13	0	0	0	0	516	
14	0	0	0	0	517	
15	0	0	0	0	517	
0	0	0	0	0	517	
1	0	0	0	0	517	
2	0	0	0	0	518	
3	0	0	0	0	519	
4	0	0	0	0	519	
5	0	0	0	0	519	
6	0	0	0	0	519	
7	0	0	0	0	519	
8	0	0	0	0	519	
9	0	0	0	0	519	
10	0	0	0	0	519	
11	0	0	0	0	518	
12	0	0	0	0	518	
13	0	0	0	0	518	
14	0	0	0	0	518	
15	0	0	0	0	517	
0	0	0	0	0	516	
1	0	0	0	0	515	
2	0	0	0	0	514	
3	0	0	0	0	513	
4	0	0	0	0	513	
5	0	0	0	0	514	
6	0	0	0	0	515	
7	0	0	0	0	515	
8	0	0	0	0	516	
9	0	0	0	0	516	
10	0	0	0	0	516	
11	0	0	0	0	517	
12	0	0	0	0	516	
13	0	0	0	0	516	
14	0	0	0	0	517	
15	0	0	0	0	518	
0	0	0	0	0	518	
1	0	0	0	0	517	
2	0	0	0	0	518	
3	0	0	0	0	517	
4	0	0	0	0	516	
5	0	0	0	0	515	
6	0	0	0	0	516	
7	0	0	0	0	516	
8	0	0	0	0	517	
9	0	0	0	0	517	
10	0	0	0	0	517	
11	0	0	0	0	516	
12	0	0	0	0	515	
13	0	0	0	0	514	
14	0	0	0	0	513	
15	0	0	0	0	513	
0	0	0	0	0	513	
1	0	0	0	0	514	
2	0	0	0	0	516	
3	0	0	0	0	517	
4	0	0	0	0	517	
5	0	0	0	0	517	
6	0	0	0	0	517	
7	0	0	0	0	517	
8	0	0	0	0	516	
9	0	0	0	0	516	
10	0	0	0	0	515	
11	0	0	0	0	515	
12	0	0	0	0	516	
13	0	0	0	0	517	
14	0	0	0	0	517	
15	0	0	0	0	516	
0	0	0	0	0	517	
1	0	0	0	0	518	
2	0	0	0	0	519	
3	0	0	0	0	519	
4	0	0	0	0	521	
5	0	0	0	0	521	
6	0	0	0	0	521	
7	0	0	0	0	519	
8	0	0	0	0	520	
9	0	0	0	0	520	
10	0	0	0	0	520	
11	0	0	0	0	520	
12	0	0	0	0	519	
13	0	0	0	0	518	
14	0	0	0	0	518	
15	0	0	0	0	519	
0	0	0	0	0	519	
1	0	0	0	0	519	
2	0	0	0	0	521	
3	0	0	0	0	521	
4	0	0	0	0	519	
5	0	0	0	0	519	
6	0	0	0	0	519	
7	0	0	0	0	519	
8	0	0	0	0	519	
9	0	0	0	0	520	
10	0	0	0	0	520	
11	0	0	0	0	520	
12	0	0	0	0	519	
13	0	0	0	0	519	
14	0	0	0	0	519	
15	0	0	0	0	519	
0	0	0	0	0	519	
1	0	0	0	0	520	
2	0	0	0	0	521	
3	0	0	0	0	521	
4	0	0	0	0	522	
5	0	0	0	0	523	
6	0	0	0	0	524	
7	0	0	0	0	524	
8	0	0	0	0	523	
9	0	0	0	0	523	
10	0	0	0	0	524	
11	0	0	0	0	524	
12	0	0	0	0	525	
13	0	0	0	0	526	
14	0	0	0	0	526	
15	0	0	0	0	526	
0	0	0	0	0	526	
1	0	0	0	0	526	
2	0	0	0	0	526	
3	0	0	0	0	527	
4	0	0	0	0	526	
5	0	0	0	0	526	
6	0	0	0	0	526	
7	0	0	0	0	526	
8	0	0	0	0	526	
9	0	0	0	0	527	
10	0	0	0	0	527	
11	0	0	0	0	527	
12	0	0	0	0	527	
13	0	0	0	0	527	
14	0	0	0	0	527	
15	0	0	0	0	527	
0	0	0	0	0	527	
1	0	0	0	0	527	
2	0	0	0	0	527	
3	0	0	0	0	527	
4	0	0	0	0	527	
5	0	0	0	0	526	
6	0	0	0	0	525	
7	0	0	0	0	525	
8	0	0	0	0	524	
9	0	0	0	0	524	
10	0	0	0	0	524	
11	0	0	0	0	523	
12	0	0	0	0	524	
13	0	0	0	0	524	
14	0	0	0	0	524	
15	0	0	0	0	524	
0	0	0	0	0	524	
1	0	0	0	0	524	
2	0	0	0	0	526	
3	0	0	0	0	527	
4	0	0	0	0	526	
5	0	0	0	0	526	
6	0	0	0	0	525	
7	0	0	0	0	526	
8	0	0	0	0	526	
9	0	0	0	0	527	
10	0	0	0	0	528	
11	0	0	0	0	529	
12	0	0	0	0	529	
13	0	0	0	0	530	
14	0	0	0	0	529	
15	0	0	0	0	529	
0	0	0	0	0	531	
1	0	0	0	0	534	
2	0	0	0	0	536	
3	0	0	0	0	537	
4	0	0	0	0	538	
5	0	0	0	0	539	
6	0	0	0	0	540	
7	0	0	0	0	542	
8	0	0	0	0	542	
9	0	0	0	0	542	
10	0	0	0	0	541	
11	0	0	0	0	540	
12	0	0	0	0	539	
13	0	0	0	0	536	
14	0	0	0	0	536	
15	0	0	0	0	534	
0	0	0	0	0	531	
1	0	0	0	0	529	
2	0	0	0	0	528	
3	0	0	0	0	527	
4	0	0	0	0	524	
5	0	0	0	0	524	
6	0	0	0	0	526	
7	0	0	0	0	526	
8	0	0	0	0	528	
9	0	0	0	0	529	
10	0	0	0	0	529	
11	0	0	0	0	530	
12	0	0	0	0	532	
13	0	0	0	0	532	
14	0	0	0	0	533	
15	0	0	0	0	533	
0	0	0	0	0	536	
1	0	0	0	0	536	
2	0	0	0	0	536	
3	0	0	0	0	536	
4	0	0	0	0	536	
5	0	0	0	0	535	
6	0	0	0	0	533	
7	0	0	0	0	531	
8	0	0	0	0	528	
9	0	0	0	0	526	
10	0	0	0	0	525	
11	0	0	0	0	524	
12	0	0	0	0	523	
13	0	0	0	0	522	
14	0	0	0	0	521	
15	0	0	0	0	520	
0	0	0	0	0	519	
1	0	0	0	0	519	
2	0	0	0	0	518	
3	0	0	0	0	516	
4	0	0	0	0	516	
5	0	0	0	0	515	
6	0	0	0	0	514	
7	0	0	0	0	513	
8	0	0	0	0	512	
9	0	0	0	0	512	
10	0	0	0	0	512	
11	0	0	0	0	513	
12	0	0	0	0	513	
13	0	0	0	0	511	
14	0	0	0	0	511	
15	0	0	0	0	512	
0	0	0	0	0	511	
1	0	0	0	0	511	
2	0	0	0	0	512	
3	0	0	0	0	512	
4	0	0	0	0	513	
5	0	0	0	0	513	
6	0	0	0	0	512	
7	0	0	0	0	511	
8	0	0	0	0	511	
9	0	0	0	0	510	
10	0	0	0	0	509	
11	0	0	0	0	509	
12	0	0	0	0	509	
13	0	0	0	0	509	
14	0	0	0	0	509	
15	0	0	0	0	509	
0	0	0	0	0	508	
1	0	0	0	0	508	
2	0	0	0	0	508	
3	0	0	0	0	508	
4	0	0	0	0	508	
5	0	0	0	0	509	
6	0	0	0	0	508	
7	0	0	0	0	509	
8	0	0	0	0	509	
9	0	0	0	0	509	
10	0	0	0	0	509	
11	0	0	0	0	510	
12	0	0	0	0	510	
13	0	0	0	0	511	
14	0	0	0	0	511	
15	0	0	0	0	511	
0	0	0	0	0	511	
1	0	0	0	0	510	
2	0	0	0	0	510	
3	0	0	0	0	510	
4	0	0	0	0	511	
5	0	0	0	0	510	
6	0	0	0	0	511	
7	0	0	0	0	511	
8	0	0	0	0	511	
9	0	0	0	0	511	
10	0	0	0	0	512	
11	0	0	0	0	512	
12	0	0	0	0	511	
13	0	0	0	0	510	
14	0	0	0	0	511	
15	0	0	0	0	510	
0	0	0	0	0	508	
1	0	0	0	0	507	
2	0	0	0	0	505	
3	0	0	0	0	504	
4	0	0	0	0	503	
5	0	0	0	0	503	
6	0	0	0	0	505	
7	0	0	0	0	509	
8	0	0	0	0	514	
9	0	0	0	0	521	
10	0	0	0	0	530	
11	0	0	0	0	539	
12	0	0	0	0	550	
13	0	0	0	0	563	
14	0	0	0	0	575	
15	0	0	0	0	589	
0	0	0	0	0	604	
1	0	0	0	0	616	
2	0	0	0	0	630	
3	0	0	0	0	646	
4	0	0	0	0	664	
5	0	0	0	0	683	
6	0	0	0	0	702	
7	0	0	0	0	724	
8	0	0	0	0	746	
9	0	0	0	0	768	
10	0	0	0	0	791	
11	0	0	0	0	815	
12	0	0	0	0	841	
13	0	0	0	0	869	
14	0	0	0	0	898	
15	0	0	0	0	926	
0	0	0	0	0	953	
1	0	0	0	0	981	
2	0	0	0	0	1004	
3	0	0	0	0	1020	
4	0	0	0	0	1022	
5	0	0	0	0	1022	
6	0	0	0	0	1022	
7	0	0	0	0	1022	
8	0	0	0	0	1022	
9	0	0	0	0	1022	
10	0	0	0	0	1016	
11	0	0	0	0	993	
12	0	0	0	0	967	
13	0	0	0	0	935	
14	0	0	0	0	897	
15	0	0	0	0	854	
0	0	0	0	0	803	
1	0	0	0	0	748	
2	0	0	0	0	694	
3	0	0	0	0	643	
4	0	0	0	0	595	
5	0	0	0	0	556	
6	0	0	0	0	521	
7	0	0	0	0	493	
8	0	0	0	0	470	
9	0	0	0	0	454	
10	0	0	0	0	443	
11	0	0	0	0	435	
12	0	0	0	0	427	
13	0	0	0	0	420	
14	0	0	0	0	414	
15	0	0	0	0	408	
0	0	0	0	0	403	
1	0	0	0	0	400	
2	0	0	0	0	397	
3	0	0	0	0	395	
4	0	0	0	0	394	
5	0	0	0	0	393	
6	0	0	0	0	394	
7	0	0	0	0	394	
8	0	0	0	0	395	
9	0	0	0	0	396	
10	0	0	0	0	399	
11	0	0	0	0	401	
12	0	0	0	0	403	
13	0	0	0	0	406	
14	0	0	0	0	406	
15	0	0	0	0	408	
0	0	0	0	0	409	
1	0	0	0	0	410	
2	0	0	0	0	411	
3	0	0	0	0	411	
4	0	0	0	0	411	
5	0	0	0	0	409	
6	0	0	0	0	409	
7	0	0	0	0	408	
8	0	0	0	0	409	
9	0	0	0	0	410	
10	0	0	0	0	410	
11	0	0	0	0	410	
12	0	0	0	0	409	
13	0	0	0	0	409	
14	0	0	0	0	411	
15	0	0	0	0	411	
0	0	0	0	0	412	
1	0	0	0	0	413	
2	0	0	0	0	414	
3	0	0	0	0	414	
4	0	0	0	0	415	
5	0	0	0	0	417	
6	0	0	0	0	417	
7	0	0	0	0	418	
8	0	0	0	0	419	
9	0	0	0	0	419	
10	0	0	0	0	419	
11	0	0	0	0	420	
12	0	0	0	0	420	
13	0	0	0	0	420	
14	0	0	0	0	422	
15	0	0	0	0	424	
0	0	0	0	0	425	
1	0	0	0	0	427	
2	0	0	0	0	427	
3	0	0	0	0	428	
4	0	0	0	0	428	
5	0	0	0	0	429	
6	0	0	0	0	431	
7	0	0	0	0	432	
8	0	0	0	0	432	
9	0	0	0	0	433	
10	0	0	0	0	434	
11	0	0	0	0	433	
12	0	0	0	0	434	
13	0	0	0	0	435	
14	0	0	0	0	437	
15	0	0	0	0	439	
0	0	0	0	0	440	
1	0	0	0	0	441	
2	0	0	0	0	443	
3	0	0	0	0	445	
4	0	0	0	0	447	
5	0	0	0	0	448	
6	0	0	0	0	448	
7	0	0	0	0	450	
8	0	0	0	0	451	
9	0	0	0	0	453	
10	0	0	0	0	452	
11	0	0	0	0	454	
12	0	0	0	0	455	
13	0	0	0	0	455	
14	0	0	0	0	456	
15	0	0	0	0	459	
0	0	0	0	0	459	
1	0	0	0	0	460	
2	0	0	0	0	461	
3	0	0	0	0	460	
4	0	0	0	0	460	
5	0	0	0	0	460	
6	0	0	0	0	463	
7	0	0	0	0	464	
8	0	0	0	0	466	
9	0	0	0	0	466	
10	0	0	0	0	468	
11	0	0	0	0	470	
12	0	0	0	0	472	
13	0	0	0	0	473	
14	0	0	0	0	475	
15	0	0	0	0	478	
0	0	0	0	0	479	
1	0	0	0	0	480	
2	0	0	0	0	479	
3	0	0	0	0	479	
4	0	0	0	0	480	
5	0	0	0	0	481	
6	0	0	0	0	482	
7	0	0	0	0	483	
8	0	0	0	0	483	
9	0	0	0	0	484	
10	0	0	0	0	484	
11	0	0	0	0	485	
12	0	0	0	0	486	
13	0	0	0	0	487	
14	0	0	0	0	489	
15	0	0	0	0	491	
0	0	0	0	0	493	
1	0	0	0	0	494	
2	0	0	0	0	495	
3	0	0	0	0	495	
4	0	0	0	0	496	
5	0	0	0	0	497	
6	0	0	0	0	499	
7	0	0	0	0	500	
8	0	0	0	0	500	
9	0	0	0	0	500	
10	0	0	0	0	500	
11	0	0	0	0	502	
12	0	0	0	0	502	
13	0	0	0	0	504	
14	0	0	0	0	504	
15	0	0	0	0	505	
0	0	0	0	0	507	
1	0	0	0	0	507	
2	0	0	0	0	507	
3	0	0	0	0	508	
4	0	0	0	0	509	
5	0	0	0	0	509	
6	0	0	0	0	509	
7	0	0	0	0	510	
8	0	0	0	0	510	
9	0	0	0	0	510	
10	0	0	0	0	510	
11	0	0	0	0	510	
12	0	0	0	0	511	
13	0	0	0	0	510	
14	0	0	0	0	511	
15	0	0	0	0	511	
0	0	0	0	0	511	
1	0	0	0	0	511	
2	0	0	0	0	512	
3	0	0	0	0	512	
4	0	0	0	0	512	
5	0	0	0	0	512	
6	0	0	0	0	512	
7	0	0	0	0	513	
8	0	0	0	0	514	
9	0	0	0	0	513	
10	0	0	0	0	513	
11	0	0	0	0	515	
12	0	0	0	0	516	
13	0	0	0	0	516	
14	0	0	0	0	517	
15	0	0	0	0	517	
0	0	0	0	0	517	
1	0	0	0	0	518	
2	0	0	0	0	519	
3	0	0	0	0	518	
4	0	0	0	0	518	
5	0	0	0	0	517	
6	0	0	0	0	518	
7	0	0	0	0	518	
8	0	0	0	0	518	
9	0	0	0	0	520	
10	0	0	0	0	523	
11	0	0	0	0	524	
12	0	0	0	0	525	
13	0	0	0	0	526	
14	0	0	0	0	527	
15	0	0	0	0	528	
0	0	0	0	0	527	
1	0	0	0	0	528	
2	0	0	0	0	528	
3	0	0	0	0	528	
4	0	0	0	0	527	
5	0	0	0	0	526	
6	0	0	0	0	525	
7	0	0	0	0	527	
8	0	0	0	0	528	
9	0	0	0	0	529	
10	0	0	0	0	529	
11	0	0	0	0	527	
12	0	0	0	0	528	
13	0	0	0	0	528	
14	0	0	0	0	529	
15	0	0	0	0	531	
0	0	0	0	0	532	
1	0	0	0	0	533	
2	0	0	0	0	533	
3	0	0	0	0	534	
4	0	0	0	0	533	
5	0	0	0	0	533	
6	0	0	0	0	532	
7	0	0	0	0	532	
8	0	0	0	0	531	
9	0	0	0	0	531	
10	0	0	0	0	531	
11	0	0	0	0	531	
12	0	0	0	0	531	
13	0	0	0	0	531	
14	0	0	0	0	532	
15	0	0	0	0	531	
0	0	0	0	0	531	
1	0	0	0	0	531	
2	0	0	0	0	531	
3	0	0	0	0	531	
4	0	0	0	0	531	
5	0	0	0	0	532	
6	0	0	0	0	533	
7	0	0	0	0	534	
8	0	0	0	0	534	
9	0	0	0	0	534	
10	0	0	0	0	534	
11	0	0	0	0	534	
12	0	0	0	0	534	
13	0	0	0	0	533	
14	0	0	0	0	533	
15	0	0	0	0	533	
0	0	0	0	0	532	
1	0	0	0	0	532	
2	0	0	0	0	533	
3	0	0	0	0	532	
4	0	0	0	0	531	
5	0	0	0	0	530	
6	0	0	0	0	529	
7	0	0	0	0	529	
8	0	0	0	0	529	
9	0	0	0	0	528	
10	0	0	0	0	527	
11	0	0	0	0	526	
12	0	0	0	0	524	
13	0	0	0	0	523	
14	0	0	0	0	521	
15	0	0	0	0	521	
0	0	0	0	0	520	
1	0	0	0	0	517	
2	0	0	0	0	515	
3	0	0	0	0	514	
4	0	0	0	0	513	
5	0	0	0	0	511	
6	0	0	0	0	508	
7	0	0	0	0	507	
8	0	0	0	0	506	
9	0	0	0	0	505	
10	0	0	0	0	504	
11	0	0	0	0	504	
12	0	0	0	0	503	
13	0	0	0	0	501	
14	0	0	0	0	500	
15	0	0	0	0	499	
0	0	0	0	0	497	
1	0	0	0	0	496	
2	0	0	0	0	494	
3	0	0	0	0	492	
4	0	0	0	0	491	
5	0	0	0	0	488	
6	0	0	0	0	487	
7	0	0	0	0	485	
8	0	0	0	0	483	
9	0	0	0	0	481	
10	0	0	0	0	480	
11	0	0	0	0	480	
12	0	0	0	0	479	
13	0	0	0	0	477	
14	0	0	0	0	476	
15	0	0	0	0	474	
0	0	0	0	0	472	
1	0	0	0	0	470	
2	0	0	0	0	469	
3	0	0	0	0	469	
4	0	0	0	0	468	
5	0	0	0	0	469	
6	0	0	0	0	471	
7	0	0	0	0	471	
8	0	0	0	0	471	
9	0	0	0	0	470	
10	0	0	0	0	469	
11	0	0	0	0	469	
12	0	0	0	0	468	
13	0	0	0	0	468	
14	0	0	0	0	468	
15	0	0	0	0	468	
0	0	0	0	0	468	
1	0	0	0	0	468	
2	0	0	0	0	467	
3	0	0	0	0	468	
4	0	0	0	0	468	
5	0	0	0	0	469	
6	0	0	0	0	469	
7	0	0	0	0	468	
8	0	0	0	0	467	
9	0	0	0	0	467	
10	0	0	0	0	467	
11	0	0	0	0	468	
12	0	0	0	0	467	
13	0	0	0	0	467	
14	0	0	0	0	468	
15	0	0	0	0	467	
0	0	0	0	0	466	
1	0	0	0	0	465	
2	0	0	0	0	466	
3	0	0	0	0	466	
4	0	0	0	0	468	
5	0	0	0	0	467	
6	0	0	0	0	468	
7	0	0	0	0	470	
8	0	0	0	0	470	
9	0	0	0	0	471	
10	0	0	0	0	471	
11	0	0	0	0	472	
12	0	0	0	0	472	
13	0	0	0	0	473	
14	0	0	0	0	473	
15	0	0	0	0	474	
0	0	0	0	0	473	
1	0	0	0	0	472	
2	0	0	0	0	473	
3	0	0	0	0	473	
4	0	0	0	0	474	
5	0	0	0	0	475	
6	0	0	0	0	475	
7	0	0	0	0	476	
8	0	0	0	0	477	
9	0	0	0	0	478	
10	0	0	0	0	478	
11	0	0	0	0	480	
12	0	0	0	0	480	
13	0	0	0	0	480	
14	0	0	0	0	481	
15	0	0	0	0	481	
0	0	0	0	0	481	
1	0	0	0	0	481	
2	0	0	0	0	481	
3	0	0	0	0	483	
4	0	0	0	0	482	
5	0	0	0	0	482	
6	0	0	0	0	482	
7	0	0	0	0	482	
8	0	0	0	0	483	
9	0	0	0	0	484	
10	0	0	0	0	485	
11	0	0	0	0	485	
12	0	0	0	0	486	
13	0	0	0	0	486	
14	0	0	0	0	487	
15	0	0	0	0	489	
0	0	0	0	0	491	
1	0	0	0	0	492	
2	0	0	0	0	492	
3	0	0	0	0	492	
4	0	0	0	0	493	
5	0	0	0	0	494	
6	0	0	0	0	495	
7	0	0	0	0	496	
8	0	0	0	0	496	
9	0	0	0	0	496	
10	0	0	0	0	496	
11	0	0	0	0	497	
12	0	0	0	0	497	
13	0	0	0	0	497	
14	0	0	0	0	498	
15	0	0	0	0	498	
0	0	0	0	0	498	
1	0	0	0	0	498	
2	0	0	0	0	498	
3	0	0	0	0	499	
4	0	0	0	0	499	
5	0	0	0	0	499	
6	0	0	0	0	500	
7	0	0	0	0	500	
8	0	0	0	0	499	
9	0	0	0	0	499	
10	0	0	0	0	500	
11	0	0	0	0	502	
12	0	0	0	0	504	
13	0	0	0	0	504	
14	0	0	0	0	505	
15	0	0	0	0	505	
0	0	0	0	0	506	
1	0	0	0	0	506	
2	0	0	0	0	507	
3	0	0	0	0	508	
4	0	0	0	0	508	
5	0	0	0	0	508	
6	0	0	0	0	508	
7	0	0	0	0	508	
8	0	0	0	0	508	
9	0	0	0	0	507	
10	0	0	0	0	507	
11	0	0	0	0	508	
12	0	0	0	0	508	
13	0	0	0	0	509	
14	0	0	0	0	509	
15	0	0	0	0	511	
0	0	0	0	0	512	
1	0	0	0	0	512	
2	0	0	0	0	513	
3	0	0	0	0	513	
4	0	0	0	0	513	
5	0	0	0	0	512	
6	0	0	0	0	513	
7	0	0	0	0	513	
8	0	0	0	0	514	
9	0	0	0	0	515	
10	0	0	0	0	515	
11	0	0	0	0	515	
12	0	0	0	0	515	
13	0	0	0	0	514	
14	0	0	0	0	514	
15	0	0	0	0	513	
0	0	0	0	0	512	
1	0	0	0	0	512	
2	0	0	0	0	512	
3	0	0	0	0	512	
4	0	0	0	0	512	
5	0	0	0	0	511	
6	0	0	0	0	511	
7	0	0	0	0	511	
8	0	0	0	0	510	
9	0	0	0	0	510	
10	0	0	0	0	510	
11	0	0	0	0	510	
12	0	0	0	0	510	
13	0	0	0	0	510	
14	0	0	0	0	510	
15	0	0	0	0	511	
0	0	0	0	0	510	
1	0	0	0	0	510	
2	0	0	0	0	510	
3	0	0	0	0	511	
4	0	0	0	0	511	
5	0	0	0	0	511	
6	0	0	0	0	511	
7	0	0	0	0	511	
8	0	0	0	0	509	
9	0	0	0	0	509	
10	0	0	0	0	509	
11	0	0	0	0	508	
12	0	0	0	0	508	
13	0	0	0	0	508	
14	0	0	0	0	508	
15	0	0	0	0	508	
0	0	0	0	0	507	
1	0	0	0	0	507	
2	0	0	0	0	508	
3	0	0	0	0	509	
4	0	0	0	0	510	
5	0	0	0	0	511	
6	0	0	0	0	511	
7	0	0	0	0	511	
8	0	0	0	0	511	
9	0	0	0	0	510	
10	0	0	0	0	509	
11	0	0	0	0	509	
12	0	0	0	0	509	
13	0	0	0	0	510	
14	0	0	0	0	510	
15	0	0	0	0	511	
0	0	0	0	0	512	
1	0	0	0	0	512	
2	0	0	0	0	512	
3	0	0	0	0	512	
4	0	0	0	0	512	
5	0	0	0	0	512	
6	0	0	0	0	512	
7	0	0	0	0	512	
8	0	0	0	0	512	
9	0	0	0	0	511	
10	0	0	0	0	511	
11	0	0	0	0	511	
12	0	0	0	0	511	
13	0	0	0	0	512	
14	0	0	0	0	512	
15	0	0	0	0	512	
0	0	0	0	0	512	
1	0	0	0	0	512	
2	0	0	0	0	511	
3	0	0	0	0	511	
4	0	0	0	0	511	
5	0	0	0	0	510	
6	0	0	0	0	510	
7	0	0	0	0	510	
8	0	0	0	0	511	
9	0	0	0	0	512	
10	0	0	0	0	512	
11	0	0	0	0	513	
12	0	0	0	0	513	
13	0	0	0	0	512	
14	0	0	0	0	513	
15	0	0	0	0	513	
0	0	0	0	0	514	
1	0	0	0	0	514	
2	0	0	0	0	513	
3	0	0	0	0	513	
4	0	0	0	0	513	
5	0	0	0	0	512	
6	0	0	0	0	512	
7	0	0	0	0	512	
8	0	0	0	0	511	
9	0	0	0	0	511	
10	0	0	0	0	512	
11	0	0	0	0	513	
12	0	0	0	0	513	
13	0	0	0	0	514	
14	0	0	0	0	515	
15	0	0	0	0	514	
0	0	0	0	0	514	
1	0	0	0	0	513	
2	0	0	0	0	512	
3	0	0	0	0	512	
4	0	0	0	0	512	
5	0	0	0	0	513	
6	0	0	0	0	513	
7	0	0	0	0	513	
8	0	0	0	0	513	
9	0	0	0	0	514	
10	0	0	0	0	514	
11	0	0	0	0	514	
12	0	0	0	0	515	
13	0	0	0	0	516	
14	0	0	0	0	515	
15	0	0	0	0	515	
0	0	0	0	0	515	
1	0	0	0	0	515	
2	0	0	0	0	515	
3	0	0	0	0	515	
4	0	0	0	0	516	
5	0	0	0	0	518	
6	0	0	0	0	518	
7	0	0	0	0	518	
8	0	0	0	0	517	
9	0	0	0	0	518	
10	0	0	0	0	518	
11	0	0	0	0	518	
12	0	0	0	0	517	
13	0	0	0	0	516	
14	0	0	0	0	515	
15	0	0	0	0	515	
0	0	0	0	0	514	
1	0	0	0	0	514	
2	0	0	0	0	515	
3	0	0	0	0	515	
4	0	0	0	0	515	
5	0	0	0	0	515	
6	0	0	0	0	516	
7	0	0	0	0	518	
8	0	0	0	0	518	
9	0	0	0	0	518	
10	0	0	0	0	518	
11	0	0	0	0	518	
12	0	0	0	0	518	
13	0	0	0	0	518	
14	0	0	0	0	519	
15	0	0	0	0	518	
0	0	0	0	0	518	
1	0	0	0	0	517	
2	0	0	0	0	517	
3	0	0	0	0	517	
4	0	0	0	0	517	
5	0	0	0	0	518	
6	0	0	0	0	517	
7	0	0	0	0	517	
8	0	0	0	0	517	
9	0	0	0	0	516	
10	0	0	0	0	516	
11	0	0	0	0	515	
12	0	0	0	0	515	
13	0	0	0	0	515	
14	0	0	0	0	515	
15	0	0	0	0	515	
0	0	0	0	0	514	
1	0	0	0	0	514	
2	0	0	0	0	514	
3	0	0	0	0	515	
4	0	0	0	0	516	
5	0	0	0	0	516	
6	0	0	0	0	517	
7	0	0	0	0	517	
8	0	0	0	0	517	
9	0	0	0	0	517	
10	0	0	0	0	517	
11	0	0	0	0	516	
12	0	0	0	0	516	
13	0	0	0	0	515	
14	0	0	0	0	516	
15	0	0	0	0	516	
0	0	0	0	0	516	
1	0	0	0	0	516	
2	0	0	0	0	516	
3	0	0	0	0	516	
4	0	0	0	0	515	
5	0	0	0	0	515	
6	0	0	0	0	515	
7	0	0	0	0	516	
8	0	0	0	0	515	
9	0	0	0	0	514	
10	0	0	0	0	513	
11	0	0	0	0	513	
12	0	0	0	0	514	
13	0	0	0	0	515	
14	0	0	0	0	516	
15	0	0	0	0	516	
0	0	0	0	0	515	
1	0	0	0	0	516	
2	0	0	0	0	517	
3	0	0	0	0	518	
4	0	0	0	0	518	
5	0	0	0	0	518	
6	0	0	0	0	518	
7	0	0	0	0	518	
8	0	0	0	0	518	
9	0	0	0	0	518	
10	0	0	0	0	518	
11	0	0	0	0	519	
12	0	0	0	0	519	
13	0	0	0	0	519	
14	0	0	0	0	519	
15	0	0	0	0	519	
0	0	0	0	0	519	
1	0	0	0	0	519	
2	0	0	0	0	518	
3	0	0	0	0	517	
4	0	0	0	0	517	
5	0	0	0	0	518	
6	0	0	0	0	519	
7	0	0	0	0	519	
8	0	0	0	0	519	
9	0	0	0	0	519	
10	0	0	0	0	519	
11	0	0	0	0	519	
12	0	0	0	0	520	
13	0	0	0	0	521	
14	0	0	0	0	521	
15	0	0	0	0	521	
0	0	0	0	0	520	
1	0	0	0	0	520	
2	0	0	0	0	520	
3	0	0	0	0	519	
4	0	0	0	0	520	
5	0	0	0	0	519	
6	0	0	0	0	519	
7	0	0	0	0	519	
8	0	0	0	0	520	
9	0	0	0	0	521	
10	0	0	0	0	521	
11	0	0	0	0	522	
12	0	0	0	0	522	
13	0	0	0	0	521	
14	0	0	0	0	520	
15	0	0	0	0	520	
0	0	0	0	0	519	
1	0	0	0	0	519	
2	0	0	0	0	519	
3	0	0	0	0	520	
4	0	0	0	0	519	
5	0	0	0	0	519	
6	0	0	0	0	519	
7	0	0	0	0	520	
8	0	0	0	0	519	
9	0	0	0	0	519	
10	0	0	0	0	518	
11	0	0	0	0	519	
12	0	0	0	0	519	
13	0	0	0	0	520	
14	0	0	0	0	521	
15	0	0	0	0	521	
0	0	0	0	0	521	
1	0	0	0	0	521	
2	0	0	0	0	522	
3	0	0	0	0	522	
4	0	0	0	0	521	
5	0	0	0	0	521	
6	0	0	0	0	520	
7	0	0	0	0	520	
8	0	0	0	0	519	
9	0	0	0	0	520	
10	0	0	0	0	519	
11	0	0	0	0	520	
12	0	0	0	0	520	
13	0	0	0	0	521	
14	0	0	0	0	520	
15	0	0	0	0	519	
0	0	0	0	0	519	
1	0	0	0	0	519	
2	0	0	0	0	520	
3	0	0	0	0	521	
4	0	0	0	0	522	
5	0	0	0	0	522	
6	0	0	0	0	522	
7	0	0	0	0	522	
8	0	0	0	0	522	
9	0	0	0	0	522	
10	0	0	0	0	521	
11	0	0	0	0	520	
12	0	0	0	0	520	
13	0	0	0	0	519	
14	0	0	0	0	519	
15	0	0	0	0	519	
0	0	0	0	0	519	
1	0	0	0	0	520	
2	0	0	0	0	520	
3	0	0	0	0	521	
4	0	0	0	0	520	
5	0	0	0	0	520	
6	0	0	0	0	520	
7	0	0	0	0	519	
8	0	0	0	0	519	
9	0	0	0	0	519	
10	0	0	0	0	519	
11	0	0	0	0	519	
12	0	0	0	0	518	
13	0	0	0	0	519	
14	0	0	0	0	519	
15	0	0	0	0	518	
0	0	0	0	0	516	
1	0	0	0	0	515	
2	0	0	0	0	514	
3	0	0	0	0	514	
4	0	0	0	0	514	
5	0	0	0	0	513	
6	0	0	0	0	513	
7	0	0	0	0	514	
8	0	0	0	0	515	
9	0	0	0	0	516	
10	0	0	0	0	517	
11	0	0	0	0	518	
12	0	0	0	0	518	
13	0	0	0	0	519	
14	0	0	0	0	520	
15	0	0	0	0	520	
0	0	0	0	0	521	
1	0	0	0	0	521	
2	0	0	0	0	520	
3	0	0	0	0	520	
4	0	0	0	0	520	
5	0	0	0	0	520	
6	0	0	0	0	519	
7	0	0	0	0	519	
8	0	0	0	0	519	
9	0	0	0	0	519	
10	0	0	0	0	520	
11	0	0	0	0	521	
12	0	0	0	0	522	
13	0	0	0	0	524	
14	0	0	0	0	525	
15	0	0	0	0	526	
0	0	0	0	0	526	
1	0	0	0	0	526	
2	0	0	0	0	526	
3	0	0	0	0	527	
4	0	0	0	0	529	
5	0	0	0	0	530	
6	0	0	0	0	530	
7	0	0	0	0	530	
8	0	0	0	0	530	
9	0	0	0	0	531	
10	0	0	0	0	531	
11	0	0	0	0	533	
12	0	0	0	0	533	
13	0	0	0	0	532	
14	0	0	0	0	531	
15	0	0	0	0	529	
0	0	0	0	0	526	
1	0	0	0	0	525	
2	0	0	0	0	523	
3	0	0	0	0	522	
4	0	0	0	0	521	
5	0	0	0	0	520	
6	0	0	0	0	520	
7	0	0	0	0	520	
8	0	0	0	0	521	
9	0	0	0	0	522	
10	0	0	0	0	523	
11	0	0	0	0	524	
12	0	0	0	0	525	
13	0	0	0	0	526	
14	0	0	0	0	527	
15	0	0	0	0	527	
0	0	0	0	0	526	
1	0	0	0	0	526	
2	0	0	0	0	526	
3	0	0	0	0	527	
4	0	0	0	0	528	
5	0	0	0	0	527	
6	0	0	0	0	527	
7	0	0	0	0	526	
8	0	0	0	0	526	
9	0	0	0	0	524	
10	0	0	0	0	522	
11	0	0	0	0	519	
12	0	0	0	0	519	
13	0	0	0	0	518	
14	0	0	0	0	517	
15	0	0	0	0	516	
0	0	0	0	0	515	
1	0	0	0	0	514	
2	0	0	0	0	513	
3	0	0	0	0	512	
4	0	0	0	0	511	
5	0	0	0	0	510	
6	0	0	0	0	510	
7	0	0	0	0	509	
8	0	0	0	0	509	
9	0	0	0	0	509	
10	0	0	0	0	510	
11	0	0	0	0	509	
12	0	0	0	0	510	
13	0	0	0	0	510	
14	0	0	0	0	510	
15	0	0	0	0	510	
0	0	0	0	0	509	
1	0	0	0	0	510	
2	0	0	0	0	509	
3	0	0	0	0	509	
4	0	0	0	0	508	
5	0	0	0	0	508	
6	0	0	0	0	507	
7	0	0	0	0	506	
8	0	0	0	0	505	
9	0	0	0	0	505	
10	0	0	0	0	504	
11	0	0	0	0	505	
12	0	0	0	0	504	
13	0	0	0	0	504	
14	0	0	0	0	506	
15	0	0	0	0	507	
0	0	0	0	0	508	
1	0	0	0	0	508	
2	0	0	0	0	508	
3	0	0	0	0	508	
4	0	0	0	0	509	
5	0	0	0	0	509	
6	0	0	0	0	510	
7	0	0	0	0	509	
8	0	0	0	0	510	
9	0	0	0	0	510	
10	0	0	0	0	510	
11	0	0	0	0	508	
12	0	0	0	0	508	
13	0	0	0	0	508	
14	0	0	0	0	509	
15	0	0	0	0	510	
0	0	0	0	0	510	
1	0	0	0	0	510	
2	0	0	0	0	509	
3	0	0	0	0	510	
4	0	0	0	0	510	
5	0	0	0	0	510	
6	0	0	0	0	510	
7	0	0	0	0	510	
8	0	0	0	0	509	
9	0	0	0	0	508	
10	0	0	0	0	508	
11	0	0	0	0	508	
12	0	0	0	0	508	
13	0	0	0	0	508	
14	0	0	0	0	507	
15	0	0	0	0	507	
0	0	0	0	0	506	
1	0	0	0	0	505	
2	0	0	0	0	504	
3	0	0	0	0	504	
4	0	0	0	0	504	
5	0	0	0	0	505	
6	0	0	0	0	507	
7	0	0	0	0	509	
8	0	0	0	0	513	
9	0	0	0	0	519	
10	0	0	0	0	527	
11	0	0	0	0	537	
12	0	0	0	0	547	
13	0	0	0	0	561	
14	0	0	0	0	575	
15	0	0	0	0	589	
0	0	0	0	0	602	
1	0	0	0	0	615	
2	0	0	0	0	629	
3	0	0	0	0	644	
4	0	0	0	0	661	
5	0	0	0	0	679	
6	0	0	0	0	698	
7	0	0	0	0	720	
8	0	0	0	0	741	
9	0	0	0	0	764	
10	0	0	0	0	788	
11	0	0	0	0	813	
12	0	0	0	0	839	
13	0	0	0	0	865	
14	0	0	0	0	893	
15	0	0	0	0	921	
0	0	0	0	0	949	
1	0	0	0	0	979	
2	0	0	0	0	1005	
3	0	0	0	0	1021	
4	0	0	0	0	1022	
5	0	0	0	0	1022	
6	0	0	0	0	1022	
7	0	0	0	0	1022	
8	0	0	0	0	1022	
9	0	0	0	0	1022	
10	0	0	0	0	1022	
11	0	0	0	0	1021	
12	0	0	0	0	997	
13	0	0	0	0	969	
14	0	0	0	0	938	
15	0	0	0	0	900	
0	0	0	0	0	855	
1	0	0	0	0	804	
2	0	0	0	0	751	
3	0	0	0	0	698	
4	0	0	0	0	649	
5	0	0	0	0	605	
6	0	0	0	0	564	
7	0	0	0	0	529	
8	0	0	0	0	499	
9	0	0	0	0	476	
10	0	0	0	0	458	
11	0	0	0	0	444	
12	0	0	0	0	432	
13	0	0	0	0	422	
14	0	0	0	0	415	
15	0	0	0	0	410	
0	0	0	0	0	405	
1	0	0	0	0	401	
2	0	0	0	0	399	
3	0	0	0	0	397	
4	0	0	0	0	395	
5	0	0	0	0	394	
6	0	0	0	0	394	
7	0	0	0	0	394	
8	0	0	0	0	395	
9	0	0	0	0	395	
10	0	0	0	0	396	
11	0	0	0	0	397	
12	0	0	0	0	400	
13	0	0	0	0	401	
14	0	0	0	0	404	
15	0	0	0	0	405	
0	0	0	0	0	407	
1	0	0	0	0	408	
2	0	0	0	0	408	
3	0	0	0	0	408	
4	0	0	0	0	406	
5	0	0	0	0	406	
6	0	0	0	0	406	
7	0	0	0	0	406	
8	0	0	0	0	406	
9	0	0	0	0	406	
10	0	0	0	0	405	
11	0	0	0	0	404	
12	0	0	0	0	405	
13	0	0	0	0	406	
14	0	0	0	0	407	
15	0	0	0	0	406	
0	0	0	0	0	406	
1	0	0	0	0	406	
2	0	0	0	0	406	
3	0	0	0	0	407	
4	0	0	0	0	408	
5	0	0	0	0	408	
6	0	0	0	0	409	
7	0	0	0	0	411	
8	0	0	0	0	412	
9	0	0	0	0	413	
10	0	0	0	0	414	
11	0	0	0	0	415	
12	0	0	0	0	417	
13	0	0	0	0	417	
14	0	0	0	0	418	
15	0	0	0	0	419	
0	0	0	0	0	421	
1	0	0	0	0	422	
2	0	0	0	0	423	
3	0	0	0	0	423	
4	0	0	0	0	424	
5	0	0	0	0	424	
6	0	0	0	0	425	
7	0	0	0	0	427	
8	0	0	0	0	427	
9	0	0	0	0	428	
10	0	0	0	0	430	
11	0	0	0	0	432	
12	0	0	0	0	432	
13	0	0	0	0	435	
14	0	0	0	0	436	
15	0	0	0	0	437	
0	0	0	0	0	439	
1	0	0	0	0	439	
2	0	0	0	0	440	
3	0	0	0	0	441	
4	0	0	0	0	443	
5	0	0	0	0	443	
6	0	0	0	0	444	
7	0	0	0	0	445	
8	0	0	0	0	446	
9	0	0	0	0	447	
10	0	0	0	0	448	
11	0	0	0	0	449	
12	0	0	0	0	450	
13	0	0	0	0	451	
14	0	0	0	0	452	
15	0	0	0	0	454	
0	0	0	0	0	455	
1	0	0	0	0	455	
2	0	0	0	0	456	
3	0	0	0	0	457	
4	0	0	0	0	460	
5	0	0	0	0	461	
6	0	0	0	0	463	
7	0	0	0	0	463	
8	0	0	0	0	463	
9	0	0	0	0	465	
10	0	0	0	0	466	
11	0	0	0	0	467	
12	0	0	0	0	469	
13	0	0	0	0	469	
14	0	0	0	0	469	
15	0	0	0	0	470	
0	0	0	0	0	471	
1	0	0	0	0	471	
2	0	0	0	0	472	
3	0	0	0	0	474	
4	0	0	0	0	476	
5	0	0	0	0	478	
6	0	0	0	0	479	
7	0	0	0	0	481	
8	0	0	0	0	484	
9	0	0	0	0	485	
10	0	0	0	0	485	
11	0	0	0	0	486	
12	0	0	0	0	487	
13	0	0	0	0	488	
14	0	0	0	0	487	
15	0	0	0	0	487	
0	0	0	0	0	486	
1	0	0	0	0	486	
2	0	0	0	0	487	
3	0	0	0	0	488	
4	0	0	0	0	489	
5	0	0	0	0	491	
6	0	0	0	0	492	
7	0	0	0	0	492	
8	0	0	0	0	494	
9	0	0	0	0	496	
10	0	0	0	0	497	
11	0	0	0	0	498	
12	0	0	0	0	499	
13	0	0	0	0	499	
14	0	0	0	0	499	
15	0	0	0	0	500	
0	0	0	0	0	502	
1	0	0	0	0	504	
2	0	0	0	0	504	
3	0	0	0	0	504	
4	0	0	0	0	504	
5	0	0	0	0	504	
6	0	0	0	0	504	
7	0	0	0	0	506	
8	0	0	0	0	507	
9	0	0	0	0	507	
10	0	0	0	0	506	
11	0	0	0	0	507	
12	0	0	0	0	507	
13	0	0	0	0	508	
14	0	0	0	0	510	
15	0	0	0	0	510	
0	0	0	0	0	510	
1	0	0	0	0	510	
2	0	0	0	0	509	
3	0	0	0	0	509	
4	0	0	0	0	510	
5	0	0	0	0	511	
6	0	0	0	0	511	
7	0	0	0	0	512	
8	0	0	0	0	512	
9	0	0	0	0	513	
10	0	0	0	0	513	
11	0	0	0	0	513	
12	0	0	0	0	514	
13	0	0	0	0	515	
14	0	0	0	0	515	
15	0	0	0	0	515	
0	0	0	0	0	516	
1	0	0	0	0	517	
2	0	0	0	0	517	
3	0	0	0	0	516	
4	0	0	0	0	516	
5	0	0	0	0	516	
6	0	0	0	0	517	
7	0	0	0	0	519	
8	0	0	0	0	519	
9	0	0	0	0	520	
10	0	0	0	0	520	
11	0	0	0	0	520	
12	0	0	0	0	521	
13	0	0	0	0	521	
14	0	0	0	0	521	
15	0	0	0	0	521	
0	0	0	0	0	521	
1	0	0	0	0	522	
2	0	0	0	0	523	
